{ 34, 32, 31, 30, 32, 32, 32, 30, 29, 27, 30, 30, 30, 27, 27, 27, 27, 27, 27, 30, 29, 29, 28, 32, 32, 34, 33, 35, 37, 40, 41, 42, 43, 42, 43, 47, 49, 48, 48, 48, 48, 50, 51, 50, 50, 50, 50, 53, 53, 50, 50, 49, 50, 54, 54, 53, 51, 51, 50, 52, 52, 53, 50, 48, 49, 50, 50, 49, 48, 47, 46, 47, 49, 47, 45, 46, 45, 48, 49, 48, 48, 47, 47, 47, 48, 46, 44, 43, 44, 45, 45, 45, 43, 43, 43, 43, 45, 45, 43, 43, 42, 43, 43, 43, 43, 43, 44, 44, 45, 46, 45, 47, 48, 51, 53, 53, 52, 53, 52, 56, 57, 59, 60, 58, 61, 63, 64, 61, 60, 58, 58, 62, 64, 63, 63, 65, 68, 69, 63, 58, 54, 52, 48, 50, 46, 44, 43, 42, 43, 43, 44, 43, 43, 40, 41, 43, 42, 42, 41, 37, 40, 42, 43, 42, 40, 39, 41, 41, 40, 40, 37, 35, 28, 24, 20, 14, 11, 15, 34, 63, 88, 121, 164, 207, 235, 243, 222, 168, 96, 39, 15, 19, 31, 36, 34, 30, 32, 33, 34, 34, 32, 30, 32, 31, 31, 31, 28, 28, 28, 32, 32, 32, 31, 30, 31, 32, 33, 32, 32, 30, 30, 32, 33, 32, 32, 31, 30, 32, 30, 31, 29, 30, 30, 30, 33, 31, 30, 30, 31, 34, 32, 31, 32, 30, 32, 32, 35, 32, 35, 31, 32, 33, 33, 32, 32, 30, 30, 31, 33, 31, 31, 28, 30, 31, 32, 30, 29, 29, 29, 31, 32, 32, 32, 31, 32, 32, 34, 33, 33, 32, 33, 35, 39, 40, 40, 41, 44, 45, 47, 46, 48, 48, 50, 51, 53, 53, 52, 53, 53, 55, 54, 54, 53, 52, 53, 53, 53, 54, 53, 53, 53, 53, 54, 52, 49, 50, 53, 53, 53, 53, 52, 50, 52, 54, 53, 50, 52, 50, 50, 50, 50, 48, 49, 46, 48, 50, 49, 47, 45, 43, 44, 46, 45, 45, 45, 43, 45, 44, 47, 46, 45, 43, 46, 48, 48, 46, 44, 45, 43, 47, 47, 47, 45, 45, 48, 48, 48, 48, 45, 45, 47, 51, 52, 53, 51, 52, 54, 58, 58, 59, 61, 61, 63, 64, 68, 67, 68, 64, 62, 63, 63, 64, 63, 62, 62, 63, 69, 70, 68, 61, 59, 57, 57, 55, 52, 48, 49, 48, 48, 45, 45, 45, 44, 45, 47, 46, 44, 42, 42, 43, 44, 43, 40, 40, 42, 41, 44, 44, 44, 41, 40, 36, 31, 26, 19, 12, 12, 24, 43, 61, 75, 91, 117, 151, 189, 218, 236, 243, 234, 196, 135, 73, 32, 19, 27, 38, 43, 40, 37, 36, 37, 37, 37, 35, 35, 34, 35, 36, 37, 36, 35, 32, 33, 35, 39, 37, 37, 37, 37, 37, 38, 37, 35, 32, 33, 35, 37, 35, 32, 32, 33, 35, 35, 34, 34, 32, 30, 34, 32, 32, 33, 33, 33, 35, 36, 35, 34, 32, 33, 35, 35, 34, 32, 32, 33, 33, 34, 33, 30, 31, 30, 30, 32, 31, 30, 29, 30, 30, 30, 31, 31, 30, 32, 31, 30, 30, 29, 30, 33, 35, 35, 35, 35, 36, 38, 43, 43, 43, 44, 44, 46, 48, 48, 48, 48, 45, 47, 49, 52, 52, 52, 50, 49, 49, 50, 50, 49, 48, 49, 51, 53, 53, 50, 48, 48, 48, 48, 48, 45, 43, 46, 46, 50, 48, 45, 45, 46, 46, 47, 46, 45, 45, 44, 45, 45, 43, 40, 39, 40, 43, 42, 43, 43, 39, 39, 39, 39, 41, 40, 40, 40, 42, 42, 42, 39, 37, 38, 41, 40, 40, 40, 39, 40, 42, 43, 42, 40, 40, 40, 39, 43, 41, 40, 39, 40, 43, 45, 45, 45, 47, 48, 52, 53, 54, 52, 52, 54, 55, 59, 58, 57, 55, 57, 56, 58, 55, 53, 53, 57, 57, 58, 56, 56, 58, 61, 62, 60, 55, 52, 48, 47, 44, 43, 43, 40, 38, 38, 39, 39, 38, 36, 35, 35, 35, 37, 37, 38, 36, 36, 36, 38, 37, 37, 35, 36, 37, 39, 39, 37, 35, 33, 29, 26, 20, 17, 10, 5, 7, 19, 40, 61, 86, 121, 160, 196, 220, 225, 205, 156, 94, 45, 19, 12, 14, 21, 27, 28, 26, 28, 25, 27, 27, 27, 27, 24, 24, 25, 25, 28, 27, 27, 28, 27, 28, 27, 28, 25, 24, 26, 27, 27, 27, 25, 24, 24, 26, 25, 25, 23, 21, 24, 22, 24, 24, 23, 22, 24, 25, 27, 26, 24, 24, 24, 26, 26, 24, 24, 22, 23, 23, 25, 24, 24, 22, 24, 25, 26, 25, 24, 21, 21, 24, 24, 24, 22, 22, 21, 23, 22, 19, 18, 17, 18, 21, 19, 18, 17, 16, 16, 17, 20, 19, 19, 20, 24, 28, 31, 30, 33, 33, 36, 40, 43, 43, 43, 42, 44, 45, 48, 48, 48, 48, 48, 49, 51, 51, 52, 50, 51, 53, 53, 50, 50, 50, 50, 52, 52, 50, 48, 48, 48, 50, 50, 49, 47, 48, 48, 49, 49, 49, 48, 47, 46, 47, 48, 46, 47, 44, 47, 48, 49, 47, 45, 45, 46, 43, 44, 44, 43, 42, 42, 44, 46, 45, 43, 41, 43, 44, 45, 45, 43, 43, 43, 45, 45, 44, 45, 45, 46, 47, 47, 46, 47, 45, 45, 45, 47, 48, 45, 45, 49, 50, 51, 53, 51, 50, 53, 55, 57, 58, 57, 57, 59, 63, 63, 65, 64, 63, 64, 64, 63, 63, 61, 60, 62, 65, 65, 61, 59, 61, 63, 68, 71, 68, 63, 55, 55, 53, 53, 50, 46, 43, 44, 45, 45, 45, 45, 42, 44, 45, 44, 43, 43, 40, 40, 40, 41, 42, 41, 40, 39, 42, 43, 41, 40, 36, 35, 30, 27, 25, 18, 12, 14, 24, 46, 69, 91, 120, 161, 200, 233, 251, 255, 238, 194, 132, 75, 35, 18, 19, 27, 33, 37, 37, 34, 32, 35, 35, 36, 36, 34, 33, 33, 32, 35, 34, 32, 30, 33, 35, 34, 32, 32, 31, 32, 31, 32, 34, 31, 30, 30, 31, 33, 33, 33, 32, 32, 33, 34, 34, 35, 32, 34, 34, 35, 35, 34, 31, 32, 32, 35, 32, 32, 31, 32, 32, 34, 30, 30, 28, 30, 31, 32, 31, 30, 30, 32, 33, 36, 34, 33, 32, 31, 33, 35, 32, 32, 28, 32, 32, 32, 32, 30, 30, 30, 31, 31, 32, 30, 31, 32, 33, 35, 36, 36, 37, 40, 42, 44, 47, 48, 48, 49, 52, 53, 53, 52, 51, 53, 53, 52, 54, 53, 51, 54, 53, 55, 53, 53, 52, 52, 54, 56, 55, 53, 53, 53, 54, 54, 55, 52, 51, 51, 51, 52, 54, 50, 49, 47, 51, 52, 50, 50, 48, 51, 49, 52, 53, 49, 50, 50, 50, 50, 50, 48, 47, 47, 48, 49, 47, 45, 44, 45, 47, 47, 45, 44, 42, 43, 45, 45, 45, 44, 43, 45, 45, 47, 47, 47, 45, 45, 46, 45, 48, 48, 48, 50, 53, 54, 55, 55, 54, 55, 57, 56, 57, 58, 58, 61, 63, 66, 65, 66, 63, 65, 64, 66, 63, 63, 63, 66, 64, 67, 70, 69, 65, 59, 57, 55, 54, 51, 50, 47, 46, 47, 46, 45, 45, 45, 47, 47, 46, 44, 43, 44, 44, 45, 43, 44, 40, 42, 43, 43, 41, 40, 40, 41, 37, 34, 28, 25, 24, 22, 17, 10, 6, 8, 13, 30, 49, 71, 97, 130, 170, 209, 236, 245, 231, 188, 123, 66, 30, 22, 26, 33, 35, 37, 38, 37, 38, 37, 32, 34, 37, 37, 35, 35, 35, 35, 35, 35, 35, 33, 35, 35, 35, 36, 35, 35, 34, 35, 35, 37, 36, 35, 35, 35, 36, 37, 36, 38, 37, 37, 39, 39, 38, 37, 36, 35, 36, 37, 37, 35, 35, 35, 35, 37, 35, 34, 30, 32, 34, 36, 36, 33, 34, 35, 35, 37, 36, 35, 33, 32, 35, 35, 33, 33, 32, 33, 34, 34, 35, 34, 31, 32, 33, 36, 35, 35, 32, 33, 35, 35, 35, 35, 34, 35, 36, 40, 40, 40, 41, 44, 48, 50, 51, 50, 50, 53, 53, 54, 53, 54, 53, 53, 55, 56, 55, 56, 53, 54, 55, 55, 55, 54, 52, 54, 56, 56, 57, 55, 55, 55, 55, 55, 56, 55, 53, 53, 54, 53, 53, 53, 50, 50, 52, 53, 53, 53, 50, 50, 50, 51, 52, 50, 49, 49, 50, 50, 50, 50, 48, 50, 49, 50, 49, 49, 48, 47, 46, 49, 46, 47, 45, 45, 47, 48, 48, 46, 46, 46, 48, 48, 49, 45, 45, 47, 48, 48, 48, 47, 47, 48, 47, 48, 49, 48, 49, 49, 50, 52, 53, 53, 53, 54, 56, 60, 61, 60, 58, 58, 60, 62, 63, 66, 64, 66, 68, 66, 66, 63, 62, 62, 64, 66, 66, 63, 62, 65, 70, 71, 70, 63, 57, 55, 55, 55, 53, 48, 47, 45, 45, 45, 44, 45, 43, 43, 43, 45, 45, 43, 43, 43, 43, 45, 43, 44, 43, 42, 43, 43, 43, 39, 35, 33, 31, 29, 28, 26, 25, 24, 17, 10, 6, 12, 26, 48, 71, 100, 140, 181, 210, 225, 216, 176, 111, 55, 21, 15, 24, 34, 36, 32, 30, 31, 33, 35, 35, 35, 32, 31, 32, 33, 32, 32, 32, 32, 35, 36, 35, 32, 32, 32, 33, 32, 31, 30, 30, 30, 32, 35, 33, 32, 30, 32, 33, 37, 34, 33, 30, 32, 33, 33, 34, 30, 30, 31, 32, 32, 30, 30, 28, 30, 32, 33, 33, 32, 31, 31, 32, 34, 33, 32, 32, 33, 33, 35, 35, 33, 32, 35, 35, 33, 35, 32, 31, 32, 31, 31, 30, 27, 27, 27, 29, 28, 30, 29, 27, 27, 29, 31, 31, 31, 31, 33, 35, 39, 40, 40, 40, 40, 43, 45, 45, 44, 44, 45, 50, 48, 48, 47, 48, 48, 50, 52, 51, 49, 49, 50, 50, 53, 52, 50, 48, 49, 49, 50, 49, 48, 47, 47, 50, 51, 50, 48, 47, 45, 47, 48, 47, 47, 45, 46, 47, 48, 48, 48, 46, 44, 45, 44, 45, 43, 42, 44, 45, 44, 43, 40, 39, 40, 42, 42, 42, 40, 40, 40, 41, 42, 43, 40, 39, 41, 43, 43, 41, 40, 38, 40, 40, 43, 41, 40, 36, 37, 40, 40, 41, 40, 39, 41, 43, 43, 43, 43, 41, 42, 43, 44, 44, 42, 40, 43, 43, 45, 45, 44, 44, 44, 46, 48, 50, 50, 48, 49, 52, 53, 55, 56, 55, 56, 58, 58, 56, 56, 54, 55, 55, 54, 56, 55, 53, 53, 54, 57, 60, 56, 51, 51, 48, 48, 45, 42, 40, 40, 38, 37, 37, 36, 37, 37, 36, 38, 37, 35, 32, 33, 34, 35, 38, 35, 35, 33, 35, 35, 35, 34, 33, 35, 37, 37, 37, 33, 28, 25, 19, 21, 14, 8, 6, 16, 34, 55, 80, 112, 148, 187, 210, 215, 197, 151, 93, 47, 19, 14, 16, 19, 22, 25, 27, 27, 27, 25, 24, 25, 27, 28, 28, 27, 25, 24, 25, 27, 26, 26, 24, 23, 27, 25, 27, 25, 24, 26, 27, 30, 29, 27, 24, 28, 30, 28, 27, 27, 24, 25, 27, 27, 27, 25, 23, 24, 26, 27, 26, 24, 23, 24, 23, 25, 25, 24, 22, 24, 25, 26, 24, 24, 24, 24, 25, 26, 25, 25, 23, 23, 24, 25, 23, 21, 19, 21, 22, 19, 20, 19, 17, 17, 18, 17, 17, 15, 14, 15, 17, 19, 17, 17, 16, 17, 20, 22, 22, 20, 21, 21, 24, 27, 29, 29, 31, 34, 37, 37, 38, 40, 40, 42, 43, 45, 45, 45, 43, 45, 46, 48, 48, 45, 46, 48, 48, 50, 49, 49, 47, 46, 49, 50, 50, 48, 47, 45, 47, 48, 48, 45, 44, 45, 46, 46, 45, 45, 44, 45, 46, 48, 47, 45, 45, 45, 45, 47, 45, 46, 45, 42, 44, 45, 45, 44, 43, 45, 45, 45, 45, 44, 43, 40, 43, 45, 45, 43, 43, 44, 47, 45, 45, 43, 44, 43, 46, 45, 46, 44, 43, 44, 44, 45, 45, 45, 45, 45, 48, 49, 48, 48, 48, 48, 50, 52, 52, 51, 49, 51, 53, 55, 57, 55, 55, 56, 61, 61, 62, 62, 61, 63, 64, 66, 63, 61, 58, 62, 61, 63, 63, 64, 63, 66, 70, 71, 67, 60, 55, 55, 55, 55, 52, 50, 47, 46, 45, 45, 45, 45, 44, 45, 45, 45, 44, 43, 43, 42, 44, 44, 45, 43, 41, 41, 43, 44, 43, 37, 35, 30, 29, 25, 21, 16, 19, 32, 56, 81, 108, 143, 184, 220, 239, 234, 197, 133, 66, 28, 19, 27, 36, 38, 37, 35, 35, 38, 38, 37, 35, 34, 37, 39, 37, 38, 36, 36, 37, 38, 37, 37, 35, 35, 37, 38, 37, 37, 33, 36, 36, 37, 37, 35, 35, 35, 36, 37, 39, 37, 36, 37, 39, 40, 40, 38, 37, 37, 39, 38, 37, 35, 33, 35, 37, 37, 37, 36, 34, 36, 37, 39, 38, 38, 37, 37, 38, 38, 37, 37, 36, 36, 35, 37, 36, 35, 35, 32, 34, 35, 36, 34, 32, 33, 35, 35, 36, 36, 35, 37, 40, 42, 44, 44, 43, 47, 49, 51, 51, 53, 53, 53, 55, 57, 56, 56, 55, 56, 58, 60, 59, 59, 56, 58, 60, 61, 60, 60, 58, 58, 58, 58, 58, 56, 55, 55, 57, 58, 58, 55, 54, 54, 54, 55, 55, 54, 51, 53, 54, 55, 54, 54, 52, 53, 53, 54, 54, 52, 49, 50, 50, 51, 51, 50, 48, 48, 50, 51, 51, 48, 48, 48, 50, 50, 50, 50, 49, 50, 50, 51, 50, 50, 48, 47, 49, 49, 51, 48, 48, 49, 50, 52, 55, 53, 53, 55, 56, 60, 60, 60, 59, 61, 63, 66, 67, 67, 67, 67, 69, 68, 67, 65, 62, 63, 66, 66, 69, 70, 71, 71, 67, 63, 58, 58, 53, 54, 53, 53, 53, 51, 48, 50, 50, 50, 50, 49, 44, 48, 48, 48, 46, 45, 44, 45, 46, 48, 48, 45, 44, 43, 45, 46, 45, 41, 35, 30, 28, 25, 16, 12, 15, 27, 44, 62, 75, 86, 104, 135, 174, 209, 234, 243, 231, 191, 130, 73, 33, 22, 24, 35, 40, 42, 40, 38, 37, 37, 39, 40, 40, 39, 38, 37, 40, 41, 38, 39, 36, 35, 37, 37, 39, 37, 35, 37, 39, 39, 40, 39, 33, 35, 36, 40, 40, 40, 40, 40, 41, 43, 43, 40, 40, 40, 41, 40, 39, 37, 37, 37, 39, 40, 39, 38, 36, 36, 38, 40, 39, 37, 37, 37, 38, 39, 40, 38, 37, 39, 37, 38, 38, 35, 35, 36, 38, 39, 38, 35, 35, 35, 35, 37, 37, 36, 35, 38, 40, 42, 41, 43, 44, 45, 48, 50, 51, 51, 51, 51, 53, 54, 56, 55, 53, 53, 55, 56, 56, 57, 55, 54, 58, 57, 57, 56, 54, 56, 56, 56, 58, 55, 54, 53, 55, 56, 54, 53, 50, 50, 53, 54, 53, 53, 52, 53, 53, 55, 53, 53, 50, 51, 52, 51, 53, 50, 48, 46, 49, 50, 49, 48, 45, 45, 45, 46, 48, 45, 45, 45, 47, 48, 48, 48, 47, 49, 48, 49, 48, 48, 46, 46, 48, 49, 50, 48, 46, 48, 49, 52, 52, 50, 49, 52, 55, 58, 58, 58, 58, 60, 62, 63, 63, 62, 63, 66, 68, 68, 69, 66, 64, 63, 63, 63, 63, 64, 63, 65, 68, 72, 74, 71, 66, 63, 60, 61, 60, 57, 54, 51, 51, 50, 48, 44, 43, 43, 45, 45, 46, 43, 44, 41, 43, 44, 43, 43, 41, 41, 42, 43, 44, 42, 41, 40, 38, 37, 30, 27, 23, 21, 15, 8, 6, 9, 19, 35, 55, 78, 105, 138, 174, 205, 221, 213, 179, 123, 63, 28, 19, 24, 32, 37, 34, 33, 35, 36, 36, 34, 32, 33, 35, 34, 35, 34, 34, 33, 34, 35, 35, 35, 32, 34, 36, 37, 35, 32, 32, 30, 32, 32, 33, 34, 32, 35, 35, 36, 36, 36, 35, 33, 35, 35, 35, 35, 32, 33, 32, 33, 34, 32, 30, 30, 32, 32, 31, 31, 30, 29, 30, 32, 33, 33, 32, 32, 33, 35, 33, 31, 30, 31, 29, 30, 30, 28, 25, 27, 27, 29, 30, 29, 27, 28, 30, 31, 33, 35, 35, 35, 37, 39, 40, 40, 40, 40, 42, 43, 43, 42, 43, 45, 45, 48, 48, 47, 46, 45, 48, 50, 50, 49, 47, 48, 51, 50, 51, 47, 46, 45, 48, 50, 48, 46, 45, 45, 45, 45, 45, 42, 43, 44, 47, 47, 48, 45, 43, 42, 43, 45, 44, 42, 40, 38, 40, 42, 41, 40, 38, 39, 40, 40, 41, 39, 38, 38, 41, 40, 40, 40, 38, 39, 39, 39, 40, 41, 40, 39, 39, 40, 40, 38, 37, 38, 38, 41, 40, 39, 37, 39, 40, 43, 42, 40, 39, 37, 40, 43, 44, 44, 42, 43, 45, 47, 48, 49, 50, 50, 50, 53, 55, 53, 53, 53, 56, 57, 57, 54, 51, 51, 55, 57, 56, 55, 56, 60, 61, 58, 53, 49, 43, 41, 39, 38, 37, 36, 32, 35, 37, 39, 37, 37, 34, 33, 34, 36, 37, 35, 33, 34, 34, 35, 35, 36, 33, 33, 33, 35, 35, 35, 30, 28, 23, 22, 19, 16, 9, 1, 0, 10, 27, 45, 66, 98, 136, 174, 200, 211, 194, 147, 90, 46, 19, 10, 12, 19, 24, 27, 25, 25, 24, 24, 24, 25, 25, 22, 22, 24, 27, 27, 28, 27, 24, 24, 25, 26, 24, 22, 22, 22, 24, 25, 25, 24, 23, 22, 24, 24, 24, 22, 22, 21, 22, 24, 24, 22, 21, 22, 22, 25, 26, 24, 23, 24, 26, 27, 27, 25, 22, 23, 23, 24, 24, 23, 21, 22, 24, 23, 23, 23, 22, 21, 23, 24, 24, 22, 21, 20, 20, 20, 19, 17, 15, 16, 15, 19, 17, 17, 16, 17, 18, 19, 20, 21, 21, 23, 26, 28, 30, 30, 32, 34, 37, 39, 40, 41, 39, 40, 43, 44, 44, 43, 43, 45, 45, 47, 47, 47, 45, 46, 47, 49, 48, 48, 43, 45, 45, 48, 48, 45, 44, 44, 44, 46, 45, 44, 44, 45, 47, 48, 47, 46, 44, 45, 45, 45, 45, 43, 43, 43, 43, 45, 44, 43, 42, 41, 43, 43, 42, 43, 41, 41, 42, 43, 45, 45, 43, 43, 45, 45, 47, 46, 44, 43, 47, 45, 44, 43, 43, 42, 43, 43, 44, 42, 41, 41, 42, 43, 44, 44, 43, 41, 45, 46, 48, 48, 47, 48, 50, 52, 53, 53, 53, 53, 54, 57, 58, 58, 58, 57, 60, 61, 61, 59, 57, 60, 61, 62, 62, 61, 63, 65, 64, 60, 54, 51, 50, 48, 47, 47, 45, 40, 40, 39, 41, 42, 41, 40, 38, 39, 41, 39, 41, 40, 39, 37, 40, 40, 41, 38, 37, 38, 38, 39, 37, 35, 32, 31, 25, 22, 19, 14, 6, 4, 9, 23, 41, 64, 84, 117, 154, 190, 216, 225, 212, 174, 118, 66, 28, 14, 16, 23, 30, 31, 30, 31, 28, 30, 31, 31, 30, 29, 27, 28, 29, 31, 30, 27, 28, 27, 29, 31, 31, 30, 30, 28, 30, 31, 30, 31, 29, 28, 31, 30, 29, 29, 29, 29, 30, 33, 31, 31, 29, 29, 30, 31, 31, 30, 30, 27, 28, 31, 31, 28, 27, 28, 30, 30, 30, 30, 27, 27, 29, 30, 30, 30, 29, 30, 31, 32, 34, 32, 29, 30, 30, 31, 30, 27, 26, 27, 30, 30, 29, 27, 25, 25, 26, 28, 26, 27, 25, 27, 28, 29, 30, 31, 30, 31, 32, 35, 36, 36, 35, 37, 42, 44, 44, 43, 45, 45, 48, 48, 49, 49, 49, 49, 50, 50, 52, 50, 48, 50, 50, 50, 50, 50, 49, 48, 49, 50, 50, 49, 47, 47, 48, 49, 47, 46, 45, 45, 48, 48, 47, 48, 45, 46, 48, 49, 48, 48, 44, 45, 45, 47, 43, 45, 42, 43, 45, 43, 44, 43, 41, 40, 42, 42, 42, 41, 37, 39, 41, 41, 43, 42, 40, 41, 40, 43, 42, 40, 40, 40, 41, 40, 40, 40, 37, 40, 41, 43, 42, 42, 43, 47, 48, 49, 48, 50, 48, 51, 51, 53, 53, 53, 53, 54, 55, 59, 58, 56, 56, 57, 57, 58, 55, 55, 55, 56, 58, 58, 61, 63, 61, 59, 57, 53, 52, 50, 45, 43, 43, 43, 42, 39, 37, 39, 39, 40, 40, 38, 36, 37, 37, 39, 38, 36, 34, 35, 37, 40, 37, 37, 34, 35, 38, 40, 39, 37, 34, 31, 28, 21, 18, 13, 6, 2, 7, 20, 41, 61, 86, 118, 158, 192, 217, 227, 220, 190, 139, 83, 39, 17, 15, 20, 27, 32, 33, 30, 30, 29, 31, 32, 30, 30, 27, 27, 29, 27, 29, 27, 27, 26, 27, 28, 27, 25, 26, 27, 27, 28, 29, 29, 28, 28, 30, 30, 30, 27, 25, 26, 27, 28, 29, 29, 24, 27, 26, 28, 27, 27, 25, 25, 25, 27, 28, 24, 24, 26, 26, 27, 27, 27, 27, 28, 30, 31, 30, 26, 26, 27, 29, 27, 28, 26, 24, 23, 27, 27, 27, 24, 24, 25, 26, 27, 26, 26, 23, 23, 25, 27, 27, 27, 24, 27, 27 }


no. 3600 point