{ 91, 93, 94, 98, 101, 105, 109, 109, 113, 121, 125, 128, 125, 125, 127, 123, 116, 107, 99, 89, 88, 86, 85, 79, 72, 65, 59, 57, 52, 45, 38, 33, 32, 36, 38, 40, 38, 38, 43, 48, 52, 53, 53, 53, 59, 65, 69, 72, 77, 76, 81, 92, 98, 102, 106, 107, 113, 119, 121, 125, 127, 128, 132, 136, 140, 141, 142, 143, 147, 152, 158, 161, 159, 160, 162, 163, 166, 166, 163, 161, 160, 160, 162, 160, 155, 154, 151, 149, 153, 150, 149, 148, 150, 150, 150, 149, 148, 143, 146, 144, 146, 145, 141, 139, 141, 146, 148, 145, 145, 144, 145, 145, 145, 143, 138, 131, 123, 114, 107, 98, 89, 81, 74, 70, 67, 60, 53, 48, 44, 43, 39, 33, 29, 21, 15, 15, 15, 15, 12, 14, 13, 17, 18, 16, 13, 13, 14, 16, 17, 16, 14, 13, 17, 22, 29, 31, 32, 38, 41, 45, 49, 57, 58, 61, 65, 72, 78, 80, 83, 84, 88, 95, 102, 106, 107, 109, 113, 119, 124, 127, 129, 133, 139, 144, 148, 152, 153, 153, 155, 159, 163, 160, 161, 157, 156, 154, 155, 154, 153, 155, 155, 158, 162, 162, 161, 159, 161, 162, 162, 159, 154, 148, 144, 137, 130, 119, 105, 100, 92, 88, 82, 76, 70, 62, 60, 58, 53, 45, 38, 30, 26, 24, 24, 22, 18, 13, 11, 13, 12, 11, 9, 9, 11, 12, 17, 16, 16, 17, 20, 21, 23, 21, 20, 20, 24, 29, 33, 35, 37, 40, 45, 50, 55, 61, 65, 67, 75, 81, 87, 90, 91, 96, 102, 108, 111, 114, 117, 117, 122, 124, 127, 128, 129, 131, 132, 141, 146, 146, 146, 150, 153, 157, 162, 165, 167, 168, 171, 176, 183, 185, 187, 188, 190, 194, 196, 193, 186, 178, 171, 169, 160, 148, 134, 122, 115, 108, 102, 95, 88, 80, 76, 70, 66, 59, 50, 38, 36, 33, 31, 27, 17, 10, 10, 13, 15, 16, 15, 15, 17, 19, 19, 18, 16, 15, 16, 19, 24, 24, 23, 25, 29, 34, 38, 42, 41, 43, 46, 50, 53, 53, 54, 58, 62, 69, 73, 79, 82, 85, 93, 100, 105, 112, 116, 120, 126, 134, 139, 143, 145, 149, 155, 158, 164, 163, 165, 167, 169, 169, 170, 169, 167, 168, 170, 175, 179, 180, 180, 177, 176, 172, 170, 163, 149, 140, 128, 119, 111, 102, 96, 91, 86, 83, 82, 77, 72, 66, 62, 59, 56, 50, 44, 38, 34, 31, 29, 25, 23, 24, 23, 24, 24, 27, 26, 25, 24, 30, 30, 28, 27, 29, 31, 34, 38, 41, 38, 40, 45, 50, 52, 53, 52, 52, 52, 53, 57, 57, 58, 59, 64, 70, 75, 77, 79, 85, 88, 94, 96, 99, 100, 101, 101, 110, 113, 115, 114, 114, 119, 124, 127, 128, 127, 127, 130, 136, 139, 141, 144, 148, 153, 161, 163, 164, 162, 159, 155, 151, 145, 134, 121, 113, 107, 102, 97, 89, 81, 79, 76, 75, 76, 76, 73, 72, 74, 79, 83, 79, 78, 77, 79, 80, 81, 80, 81, 81, 85, 86, 90, 92, 92, 93, 95, 100, 104, 103, 103, 100, 105, 105, 103, 102, 97, 94, 93, 96, 94, 92, 94, 93, 90, 91, 89, 90, 85, 81, 82, 79, 79, 78, 72, 71, 72, 73, 74, 72, 72, 72, 74, 79, 82, 83, 82, 84, 86, 91, 89, 92, 89, 90, 93, 97, 99, 97, 99, 99, 104, 106, 109, 112, 110, 107, 108, 107, 105, 96, 82, 72, 64, 56, 52, 46, 37, 31, 26, 22, 20, 14, 11, 10, 11, 14, 16, 17, 16, 17, 20, 22, 24, 24, 24, 25, 26, 33, 38, 43, 47, 49, 56, 66, 75, 83, 88, 96, 105, 114, 121, 126, 129, 129, 135, 140, 146, 151, 154, 158, 162, 166, 168, 168, 166, 165, 165, 167, 164, 162, 159, 156, 156, 155, 157, 154, 153, 151, 152, 155, 155, 156, 156, 156, 157, 158, 159, 161, 158, 160, 165, 170, 172, 176, 176, 177, 182, 186, 189, 183, 177, 170, 164, 158, 149, 145, 138, 133, 126, 122, 114, 107, 97, 92, 84, 78, 72, 63, 54, 45, 45, 39, 37, 31, 26, 20, 18, 20, 17, 13, 10, 7, 8, 7, 9, 9, 7, 3, 10, 12, 14, 16, 13, 17, 23, 29, 34, 37, 40, 42, 51, 59, 64, 65, 69, 70, 74, 79, 83, 85, 84, 86, 92, 97, 101, 105, 106, 109, 116, 120, 127, 129, 131, 135, 141, 149, 155, 161, 166, 171, 176, 183, 188, 190, 194, 197, 203, 210, 216, 221, 224, 230, 233, 235, 235, 228, 218, 215, 211, 211, 209, 202, 197, 193, 191, 190, 183, 178, 169, 163, 159, 155, 152, 144, 140, 136, 134, 130, 125, 117, 107, 99, 93, 89, 86, 79, 70, 63, 59, 56, 52, 50, 46, 49, 51, 54, 58, 58, 58, 59, 63, 65, 70, 71, 70, 71, 71, 75, 75, 73, 73, 72, 75, 77, 82, 82, 82, 85, 86, 91, 92, 93, 91, 93, 95, 99, 100, 99, 94, 92, 93, 95, 95, 93, 94, 93, 95, 98, 101, 100, 100, 100, 104, 107, 111, 111, 111, 114, 121, 127, 133, 133, 136, 141, 148, 155, 158, 163, 167, 167, 173, 173, 167, 161, 151, 151, 152, 150, 150, 143, 137, 134, 134, 134, 134, 128, 125, 123, 127, 130, 132, 130, 133, 131, 133, 135, 136, 136, 134, 135, 136, 138, 137, 142, 141, 144, 148, 149, 149, 148, 145, 148, 148, 150, 148, 144, 141, 138, 137, 139, 135, 134, 130, 128, 127, 125, 125, 122, 120, 120, 119, 120, 119, 114, 115, 114, 118, 121, 119, 117, 116, 116, 115, 114, 113, 110, 107, 105, 103, 103, 103, 100, 100, 98, 99, 99, 100, 99, 97, 96, 100, 102, 104, 104, 104, 102, 104, 103, 106, 105, 105, 104, 109, 114, 116, 116, 117, 118, 119, 115, 110, 102, 96, 90, 90, 88, 88, 87, 86, 85, 84, 80, 75, 68, 59, 57, 58, 59, 59, 56, 52, 51, 50, 48, 51, 50, 48, 52, 52, 59, 59, 61, 64, 64, 68, 71, 76, 79, 79, 82, 88, 92, 95, 96, 99, 98, 100, 110, 113, 115, 117, 120, 124, 128, 134, 136, 138, 138, 143, 148, 151, 155, 155, 155, 159, 161, 162, 163, 162, 164, 167, 170, 169, 168, 166, 164, 164, 163, 162, 156, 156, 155, 155, 157, 156, 155, 155, 155, 155, 156, 157, 156, 152, 151, 149, 147, 143, 143, 141, 139, 142, 141, 134, 121, 107, 95, 83, 72, 62, 50, 42, 36, 31, 26, 24, 17, 14, 10, 9, 9, 7, 5, 1, 0, 3, 3, 6, 3, 4, 4, 9, 10, 14, 17, 16, 19, 24, 26, 30, 30, 33, 36, 39, 46, 52, 53, 59, 64, 70, 77, 80, 88, 90, 95, 100, 106, 110, 110, 110, 112, 116, 120, 118, 121, 121, 125, 128, 134, 136, 137, 135, 137, 141, 144, 144, 144, 144, 141, 146, 149, 150, 148, 148, 148, 149, 149, 148, 145, 144, 143, 145, 152, 152, 150, 147, 147, 149, 145, 143, 136, 128, 121, 108, 98, 86, 76, 68, 65, 63, 62, 59, 57, 54, 48, 50, 52, 52, 53, 53, 57, 60, 60, 63, 65, 65, 63, 68, 72, 71, 73, 74, 75, 79, 83, 85, 83, 84, 85, 86, 94, 96, 97, 100, 100, 105, 112, 114, 114, 116, 118, 121, 124, 125, 125, 124, 124, 129, 132, 133, 132, 132, 134, 134, 135, 138, 133, 131, 129, 131, 135, 134, 134, 134, 135, 137, 139, 138, 135, 137, 137, 140, 142, 144, 141, 142, 145, 147, 151, 152, 148, 145, 145, 144, 141, 137, 129, 121, 113, 109, 106, 98, 88, 79, 69, 61, 55, 45, 36, 33, 31, 31, 35, 35, 31, 30, 28, 31, 34, 33, 33, 32, 32, 34, 38, 38, 38, 37, 37, 42, 45, 46, 47, 51, 53, 59, 61, 64, 66, 69, 75, 79, 85, 90, 93, 96, 97, 104, 108, 110, 111, 110, 109, 110, 116, 119, 121, 121, 124, 128, 134, 137, 141, 141, 148, 154, 160, 166, 167, 171, 174, 178, 182, 182, 183, 180, 178, 186, 189, 191, 192, 193, 195, 198, 201, 204, 202, 196, 194, 191, 192, 190, 186, 183, 180, 177, 175, 166, 157, 148, 140, 131, 127, 122, 116, 110, 108, 107, 107, 107, 103, 101, 98, 98, 98, 97, 93, 93, 96, 100, 101, 102, 101, 102, 107, 109, 114, 113, 113, 112, 114, 117, 121, 123, 121, 122, 121, 125, 128, 129, 129, 128, 129, 132, 136, 139, 138, 134, 134, 135, 134, 131, 128, 123, 118, 116, 113, 109, 104, 100, 93, 95, 93, 91, 90, 87, 86, 87, 89, 88, 84, 82, 85, 86, 90, 93, 93, 94, 94, 94, 93, 88, 86, 86, 87, 90, 89, 85, 79, 72, 67, 63, 62, 60, 59, 59, 58, 59, 65, 66, 65, 61, 62, 65, 67, 69, 69, 71, 72, 78, 81, 82, 85, 86, 89, 97, 105, 110, 113, 116, 121, 128, 133, 135, 136, 139, 141, 147, 150, 155, 158, 160, 163, 166, 170, 173, 173, 175, 175, 178, 180, 181, 176, 176, 176, 177, 178, 176, 173, 168, 167, 165, 168, 165, 160, 157, 155, 155, 154, 152, 148, 148, 147, 146, 147, 142, 140, 138, 136, 135, 136, 135, 131, 126, 121, 116, 112, 102, 92, 87, 85, 82, 80, 75, 65, 56, 46, 38, 32, 23, 17, 14, 11, 10, 11, 10, 8, 3, 0, 2, 3, 3, 3, 3, 7, 9, 10, 13, 11, 10, 11, 16, 19, 24, 25, 28, 31, 35, 40, 45, 45, 49, 51, 53, 59, 64, 65, 65, 71, 75, 81, 81, 81, 81, 85, 89, 93, 94, 89, 92, 90, 93, 95, 94, 95, 91, 89, 91, 94, 93, 91, 89, 91, 91, 93, 93, 91, 89, 91, 93, 96, 98, 98, 99, 100, 100, 105, 106, 104, 101, 103, 106, 109, 111, 113, 114, 114, 115, 114, 113, 107, 101, 99, 101, 100, 97, 92, 85, 79, 72, 65, 57, 45, 37, 33, 26, 27, 29, 28, 26, 28, 31, 36, 38, 38, 38, 43, 48, 51, 52, 54, 57, 60, 65, 73, 77, 77, 80, 84, 87, 93, 94, 96, 96, 101, 106, 109, 113, 114, 114, 116, 122, 125, 127, 127, 127, 126, 128, 128, 127, 128, 127, 127, 128, 128, 128, 124, 123, 122, 121, 123, 121, 120, 115, 114, 119, 121, 120, 118, 118, 119, 121, 124, 122, 120, 120, 115, 120, 121, 120, 116, 114, 114, 115, 115, 121, 118, 117, 115, 112, 111, 107, 106, 107, 107, 108, 109, 107, 100, 94, 86, 77, 68, 56, 45, 35, 28, 26, 27, 24, 20, 17, 15, 16, 20, 19, 18, 19, 20, 20, 24, 26, 28, 30, 31, 37, 39, 38, 45, 46, 51, 56, 61, 65, 69, 70, 68, 76, 81, 83, 84, 84, 87, 87, 93, 92, 93, 94, 97, 100, 106, 107, 107, 110, 112, 116, 119, 122, 120, 116, 121, 123, 126, 128, 128, 127, 131, 134, 137, 136, 134, 132, 133, 133, 135, 134, 134, 134, 134, 136, 135, 135, 134, 134, 129, 127, 124, 119, 118, 114, 114, 114, 111, 109, 103, 94, 90, 85, 80, 72, 64, 58, 54, 56, 57, 55, 55, 52, 52, 55, 57, 55, 52, 48, 48, 51, 51, 52, 50, 49, 50, 54, 61, 62, 65, 67, 73, 79, 84, 88, 95, 95, 100, 107, 114, 115, 115, 116, 116, 117, 122, 119, 118, 115, 114, 117, 122, 121, 121, 121, 122, 123, 125, 123, 122, 123, 124, 128, 130, 129, 129, 131, 133, 134, 137, 138, 138, 137, 138, 139, 139, 139, 138, 137, 137, 139, 142, 144, 142, 144, 142, 144, 144, 141, 140, 138, 135, 138, 141, 141, 136, 136, 132, 132, 131, 124, 116, 107, 100, 95, 93, 88, 83, 79, 80, 80, 81, 79, 76, 75, 73, 73, 77, 78, 78, 79, 80, 81, 85, 85, 85, 86, 87, 90, 95, 96, 95, 96, 99, 102, 108, 111, 112, 114, 115, 120, 123, 128, 125, 123, 124, 124, 126, 126, 124, 121, 120, 120, 121, 120, 120, 121, 120, 122, 123, 124, 125, 124, 128, 132, 136, 135, 136, 135, 133, 136, 136, 137, 134, 130, 127, 127, 127, 125, 121, 117, 115, 118, 119, 118, 114, 112, 112, 110, 107, 103, 96, 90, 87, 87, 83, 80, 75, 70, 61, 58, 52, 42, 32, 24, 19, 16, 19, 17, 19, 18, 17, 19, 23, 22, 18, 18, 23, 25, 30, 35, 35, 38, 42, 49, 55, 59, 62, 65, 72, 79, 87, 93, 99, 107, 114, 123, 131, 138, 142, 147, 155, 162, 167, 171, 172, 173, 176, 175, 176, 176, 175, 175, 174, 177, 182, 183, 181, 181, 180, 183, 184, 183, 182, 180, 180, 180, 182, 179, 180, 179, 181, 183, 183, 183, 179, 174, 173, 176, 176, 174, 174, 171, 170, 173, 171, 170, 168, 165, 162, 157, 154, 146, 135, 128, 121, 114, 104, 91, 79, 68, 61, 58, 53, 50, 45, 44, 40, 40, 42, 39, 35, 30, 32, 32, 33, 31, 30, 25, 28, 28, 29, 29, 29, 24, 29, 31, 32, 31, 35, 35, 38, 44, 50, 52, 54, 59, 61, 65, 69, 72, 78, 80, 86, 92, 94, 96, 98, 97, 102, 106, 110, 114, 115, 115, 121, 124, 131, 133, 134, 136, 137, 143, 145, 146, 143, 145, 147, 149, 154, 154, 155, 156, 158, 162, 163, 164, 165, 163, 165, 169, 172, 171, 171, 171, 173, 173, 178, 176, 175, 174, 171, 170, 167, 159, 149, 141, 135, 132, 128, 121, 110, 101, 95, 93, 89, 85, 77, 72, 73, 72, 70, 68, 65, 65, 62, 64, 65, 64, 59, 59, 59, 62, 64, 64, 61, 63, 64, 67, 70, 71, 70, 69, 71, 75, 78, 80, 86, 89, 95, 100, 109, 114, 118, 121, 126, 130, 134, 141, 139, 140, 144, 148, 149, 148, 148, 145, 148, 149, 147, 148, 142, 139, 141, 138, 140, 135, 131, 128, 126, 128, 127, 126, 122, 119, 120, 121, 122, 118, 116, 114, 115, 114, 116, 117, 115, 111, 112, 115, 117, 116, 112, 107, 104, 101, 96, 87, 80, 72, 68, 71, 70, 65, 62, 60, 59, 59, 58, 54, 52, 48, 50, 52, 54, 56, 56, 57, 60, 64, 66, 69, 70, 72, 75, 82, 84, 84, 86, 87, 92, 96, 100, 101, 100, 101, 101, 104, 106, 105, 106, 107, 112, 117, 121, 125, 126, 127, 132, 138, 142, 147, 146, 150, 152, 157, 159, 159, 156, 157, 158, 160, 161, 158, 156, 156, 155, 155, 156, 154, 155, 150, 151, 154, 155, 155, 150, 148, 150, 150, 151, 149, 148, 147, 144, 145, 145, 144, 143, 141, 140, 141, 141, 138, 129, 122, 120, 116, 114, 108, 101, 97, 91, 87, 82, 73, 68, 60, 56, 55, 54, 50, 50, 48, 49, 52, 54, 55, 50, 54, 57, 60, 64, 65, 66, 70, 72, 78, 82, 85, 86, 88, 93, 99, 106, 109, 111, 114, 120, 127, 132, 134, 138, 141, 143, 151, 155, 155, 155, 158, 159, 164, 167, 168, 169, 168, 171, 173, 176, 174, 175, 174, 175, 176, 177, 177, 176, 175, 174, 172, 176, 174, 171, 166, 164, 167, 167, 166, 162, 160, 160, 158, 158, 156, 153, 149, 146, 143, 139, 134, 127, 120, 115, 114, 108, 100, 94, 86, 80, 73, 64, 52, 45, 35, 31, 29, 28, 25, 20, 17, 16, 16, 15, 15, 15, 10, 13, 15, 17, 17, 17, 16, 21, 24, 32, 32, 33, 34, 38, 44, 49, 52, 56, 61, 65, 73, 79, 84, 86, 89, 94, 98, 106, 107, 109, 114, 120, 123, 131, 132, 138, 140, 145, 150, 154, 159, 164, 167, 173, 180, 184, 190, 191, 196, 201, 208, 212, 216, 215, 217, 221, 224, 227, 226, 228, 229, 227, 231, 231, 231, 227, 227, 228, 228, 227, 227, 220, 216, 214, 212, 209, 206, 200, 194, 185, 181, 177, 171, 162, 154, 149, 141, 140, 134, 130, 126, 124, 127, 125, 122, 119, 114, 114, 115, 111, 109, 104, 101, 99, 96, 95, 91, 85, 80, 78, 76, 73, 72, 67, 63, 65, 66, 66, 67, 64, 65, 65, 66, 68, 67, 70, 67, 70, 71, 72, 73, 70, 69, 71, 73, 74, 74, 72, 69, 71, 77, 79, 79, 78, 75, 77, 83, 84, 86, 87, 88, 90, 95, 99, 102, 103, 104, 107, 112, 112, 115, 117, 119, 122, 129, 133, 137, 137, 139, 141, 144, 148, 144, 141, 137, 138, 136, 135, 132, 128, 126, 125, 125, 126, 123, 120, 118, 116, 116, 118, 115, 114, 112, 115, 118, 120, 119, 121, 121, 125, 128, 133, 132, 134, 134, 138, 141, 141, 141, 142, 142, 145, 149, 151, 151, 150, 151, 155, 160, 162, 165, 166, 169, 172, 178, 181, 182, 178, 176, 181, 182, 183, 184, 182, 180, 181, 181, 180, 177, 176, 175, 173, 176, 175, 173, 170, 168, 167, 167, 169, 166, 162, 162, 160, 159, 158, 157, 154, 148, 147, 147, 145, 141, 135, 133, 128, 128, 123, 119, 115, 107, 104, 100, 96, 91, 86, 83, 81, 79, 76, 74, 70, 65, 68, 69, 68, 68, 65, 65, 67, 72, 73, 77, 76, 78, 81, 86, 88, 92, 90, 92, 98, 101, 104, 105, 105, 102, 105, 107, 110, 111, 110, 112, 114, 118, 123, 126, 128, 130, 133, 138, 141, 144, 143, 148, 149, 155, 158, 159, 158, 158, 160, 163, 162, 162, 160, 162, 163, 164, 164, 161, 158, 157, 155, 155, 152, 147, 141, 139, 139, 137, 135, 133, 129, 128, 127, 128, 126, 121, 116, 113, 111, 107, 107, 102, 100, 98, 96, 98, 98, 95, 91, 89, 88, 87, 87, 83, 79, 78, 78, 79, 79, 77, 76, 76, 78, 83, 84, 84, 84, 89, 93, 99, 102, 102, 102, 104, 107, 113, 114, 119, 118, 121, 125, 128, 133, 138, 139, 147, 155, 161, 168, 173, 176, 183, 189, 196, 203, 203, 208, 212, 217, 224, 228, 230, 229, 232, 237, 241, 244, 244, 245, 247, 249, 252, 255, 253, 251, 250, 250, 250, 245, 245, 242, 238, 234, 231, 227, 220, 210, 198, 190, 184, 172, 165, 155, 147, 141, 136, 133, 126, 119, 109, 105, 106, 99, 96, 87, 79, 75, 72, 67, 62, 56, 49, 45, 47, 41, 37, 32, 31, 29, 28, 28, 25, 23, 21, 21, 24, 25, 24, 24, 24, 28, 32, 35, 37, 37, 37, 41, 45, 47, 49, 49, 55, 60, 65, 69, 73, 74, 78, 86, 91, 97, 99, 102, 105, 112, 115, 121, 123, 124, 127, 134, 140, 148, 149, 155, 157, 162, 168, 173, 177, 181, 188, 193, 200, 205, 203, 203, 204, 212, 211, 212, 214, 210, 213, 212, 213, 210, 206, 199, 195, 190, 185, 178, 174, 163, 156, 153, 148, 144, 139, 136, 134, 133, 138, 138, 134, 132, 128, 131, 132, 132, 130, 128, 125, 120, 119, 114, 113, 106, 105, 106, 106, 105, 104, 104, 107, 107, 114, 117, 119, 119, 121, 126, 130, 133, 135, 139, 139, 148, 155, 161, 165, 167, 171, 179, 183, 187, 190, 191, 193, 196, 200, 204, 204, 203, 206, 209, 215, 215, 216, 215, 214, 217, 217, 218, 216, 210, 210, 208, 208, 207, 203, 199, 198, 197, 196, 198, 196, 190, 190, 189, 189, 184, 180, 176, 169, 166, 164, 160, 156, 149, 146, 142, 134, 129, 121, 114, 105, 100, 97, 90, 85, 78, 72, 72, 72, 70, 69, 68, 69, 71, 72, 69, 64, 59, 56, 59, 62, 62, 63, 63, 64, 69, 76, 81, 81, 84, 84, 92, 96, 99, 100, 100, 102, 104, 108, 110, 113, 114, 114, 121, 126, 130, 133, 137, 140, 144, 149, 155, 155, 157, 162, 164, 171, 177, 179, 180, 181, 183, 189, 189, 190, 189, 190, 198, 201, 204, 204, 205, 206, 210, 212, 215, 210, 210, 210, 208, 211, 210, 205, 203, 200, 201, 201, 197, 195, 191, 187, 186, 187, 184, 184, 181, 179, 181, 179, 176, 169, 160, 154, 151, 149, 146, 142, 139, 136, 136, 140, 139, 141, 139, 138, 140, 140, 134, 127, 119, 114, 109, 107, 106, 99, 100, 94, 96, 96, 97, 95, 94, 93, 95, 98, 100, 97, 95, 98, 100, 100, 103, 101, 101, 100, 100, 102, 105, 107, 105, 106, 112, 115, 121, 121, 123, 126, 130, 134, 137, 137, 136, 136, 142, 146, 147, 148, 148, 148, 150, 153, 153, 150, 148, 146, 148, 152, 152, 149, 148, 146, 149, 152, 153, 150, 150, 149, 151, 153, 155, 150, 149, 147, 148, 147, 145, 140, 135, 134, 131, 128, 123, 120, 114, 111, 114, 114, 115, 117, 114, 116, 118, 118, 113, 104, 94, 87, 82, 78, 71, 65, 59, 52, 52, 52, 49, 51, 48, 50, 53, 58, 60, 65, 67, 71, 79, 84, 87, 93, 96, 100, 106, 114, 116, 121, 123, 129, 133, 140, 143, 147, 151, 153, 162, 169, 173, 175, 177, 180, 188, 191, 194, 194, 195, 195, 198, 201, 203, 201, 203, 204, 208, 212, 214, 214, 213, 215, 215, 219, 218, 218, 215, 214, 215, 218, 217, 214, 210, 208, 208, 206, 203, 195, 185, 176, 169, 163, 156, 150, 139, 137, 137, 135, 134, 133, 129, 126, 121, 116, 107, 98, 89, 82, 77, 75, 69, 60, 54, 50, 49, 49, 48, 44, 42, 38, 39, 42, 42, 40, 40, 42, 47, 51, 55, 57, 59, 64, 67, 71, 75, 79, 83, 87, 94, 100, 110, 112, 118 }


no. 3600 point