{ 83, 82, 83, 84, 83, 84, 84, 83, 85, 83, 83, 83, 82, 81, 81, 81, 81, 82, 82, 83, 83, 82, 81, 82, 81, 81, 81, 81, 81, 82, 84, 84, 84, 82, 80, 77, 77, 76, 76, 78, 79, 80, 80, 79, 79, 78, 77, 76, 76, 76, 77, 78, 80, 81, 81, 80, 79, 76, 77, 76, 76, 76, 78, 79, 80, 81, 81, 82, 82, 81, 81, 80, 78, 77, 77, 76, 78, 81, 81, 82, 79, 78, 77, 78, 81, 83, 84, 85, 85, 86, 87, 88, 88, 88, 87, 88, 87, 87, 87, 88, 87, 87, 86, 84, 82, 81, 80, 80, 80, 80, 79, 79, 79, 78, 78, 77, 77, 76, 76, 76, 74, 74, 75, 77, 79, 81, 84, 85, 84, 85, 84, 85, 87, 87, 90, 92, 94, 96, 99, 101, 105, 109, 111, 116, 118, 122, 124, 128, 133, 143, 155, 170, 187, 206, 222, 231, 233, 227, 210, 185, 153, 113, 72, 34, 9, 0, 6, 21, 39, 56, 70, 77, 79, 77, 74, 71, 70, 68, 69, 69, 70, 69, 70, 71, 71, 72, 71, 71, 71, 70, 70, 70, 70, 70, 70, 70, 70, 71, 71, 70, 70, 71, 70, 70, 70, 69, 70, 71, 71, 71, 71, 70, 71, 71, 71, 71, 70, 70, 70, 71, 71, 72, 74, 74, 73, 74, 73, 74, 73, 73, 74, 76, 78, 77, 79, 80, 79, 79, 79, 80, 80, 79, 81, 82, 81, 81, 81, 81, 80, 82, 83, 84, 84, 85, 86, 85, 83, 83, 81, 81, 79, 79, 78, 78, 77, 76, 76, 77, 77, 76, 76, 76, 76, 76, 76, 75, 74, 74, 74, 74, 75, 76, 78, 80, 80, 79, 77, 74, 72, 72, 72, 72, 74, 76, 76, 77, 76, 73, 74, 74, 73, 73, 75, 76, 76, 78, 78, 78, 78, 78, 77, 77, 77, 77, 78, 78, 80, 81, 80, 81, 81, 80, 80, 79, 78, 78, 77, 78, 79, 80, 78, 79, 80, 79, 79, 78, 78, 78, 78, 78, 78, 79, 80, 80, 80, 78, 79, 78, 78, 77, 77, 79, 78, 78, 78, 78, 77, 77, 76, 76, 76, 76, 76, 77, 78, 78, 78, 78, 78, 78, 77, 76, 76, 76, 76, 77, 78, 77, 78, 78, 78, 78, 77, 77, 76, 77, 76, 78, 78, 78, 78, 79, 79, 78, 77, 78, 77, 78, 78, 78, 79, 80, 80, 80, 80, 79, 79, 78, 78, 78, 78, 80, 80, 82, 82, 83, 82, 80, 79, 78, 80, 81, 83, 84, 85, 86, 87, 87, 87, 88, 89, 89, 90, 91, 91, 90, 89, 88, 88, 87, 87, 86, 86, 85, 85, 84, 85, 84, 83, 83, 83, 83, 81, 81, 79, 79, 79, 79, 81, 81, 82, 84, 85, 85, 87, 88, 89, 89, 90, 91, 94, 96, 98, 101, 103, 105, 108, 111, 114, 117, 120, 121, 123, 125, 128, 131, 136, 146, 156, 169, 185, 202, 220, 236, 248, 255, 251, 238, 212, 179, 137, 93, 52, 26, 11, 15, 26, 42, 55, 69, 77, 82, 83, 81, 81, 80, 78, 78, 78, 79, 80, 81, 81, 82, 82, 81, 80, 78, 77, 77, 77, 77, 78, 78, 80, 81, 81, 79, 78, 77, 76, 76, 77, 78, 78, 79, 79, 80, 79, 79, 79, 79, 78, 79, 79, 80, 81, 81, 81, 81, 81, 81, 81, 81, 81, 81, 82, 83, 84, 85, 86, 87, 87, 87, 87, 87, 87, 85, 86, 87, 89, 90, 91, 92, 92, 91, 91, 90, 90, 90, 91, 92, 91, 92, 92, 92, 92, 91, 90, 89, 91, 90, 90, 89, 87, 86, 85, 83, 83, 83, 81, 83, 83, 84, 84, 83, 85, 85, 85, 84, 84, 84, 84, 84, 83, 83, 82, 83, 83, 84, 84, 85, 85, 85, 85, 84, 84, 85, 87, 87, 88, 87, 88, 87, 87, 86, 86, 85, 85, 85, 87, 87, 88, 89, 90, 91, 89, 89, 87, 87, 86, 87, 88, 90, 91, 90, 89, 87, 87, 85, 87, 86, 85, 85, 86, 87, 86, 87, 87, 87, 88, 87, 86, 85, 84, 83, 84, 84, 85, 85, 86, 86, 85, 85, 83, 84, 84, 83, 84, 84, 85, 84, 84, 85, 85, 84, 84, 84, 83, 83, 84, 85, 85, 86, 86, 85, 85, 84, 84, 85, 84, 85, 84, 84, 85, 85, 85, 85, 84, 82, 82, 81, 81, 81, 82, 83, 84, 84, 85, 84, 83, 83, 82, 81, 82, 82, 83, 83, 84, 85, 85, 86, 85, 86, 84, 85, 84, 83, 84, 84, 85, 87, 87, 88, 88, 87, 86, 86, 88, 89, 90, 92, 92, 94, 94, 95, 96, 96, 96, 96, 95, 95, 94, 94, 93, 94, 92, 90, 89, 87, 87, 86, 87, 86, 86, 86, 85, 85, 84, 83, 82, 81, 81, 82, 83, 83, 86, 87, 90, 92, 94, 95, 96, 96, 94, 93, 94, 94, 95, 98, 101, 105, 109, 113, 116, 120, 122, 125, 127, 129, 133, 139, 150, 163, 179, 196, 214, 230, 246, 254, 253, 243, 223, 193, 155, 113, 71, 36, 17, 13, 22, 38, 54, 70, 79, 84, 85, 86, 84, 81, 80, 78, 78, 78, 78, 79, 79, 79, 81, 81, 81, 81, 81, 81, 81, 80, 80, 79, 80, 81, 81, 81, 81, 81, 81, 80, 80, 79, 79, 79, 78, 79, 81, 81, 81, 82, 82, 82, 82, 82, 83, 83, 83, 82, 80, 80, 80, 81, 83, 84, 83, 81, 82, 80, 81, 83, 85, 87, 88, 88, 90, 89, 89, 89, 88, 89, 89, 91, 92, 94, 96, 98, 97, 96, 94, 93, 93, 92, 89, 88, 87, 87, 87, 86, 86, 86, 85, 85, 85, 85, 85, 85, 84, 85, 84, 85, 84, 84, 82, 82, 80, 80, 80, 81, 81, 81, 83, 83, 84, 84, 82, 81, 80, 80, 81, 82, 83, 83, 85, 85, 85, 86, 85, 85, 85, 84, 85, 87, 87, 88, 88, 89, 89, 89, 88, 87, 87, 87, 87, 87, 87, 87, 88, 89, 88, 86, 85, 83, 82, 81, 83, 84, 84, 85, 85, 85, 86, 83, 82, 80, 80, 80, 81, 81, 83, 84, 84, 85, 84, 83, 82, 81, 80, 79, 79, 79, 79, 80, 80, 81, 83, 83, 82, 79, 77, 76, 76, 76, 76, 78, 79, 78, 78, 78, 79, 79, 79, 78, 78, 76, 75, 76, 76, 78, 79, 80, 81, 80, 77, 76, 74, 72, 73, 74, 76, 76, 77, 77, 78, 77, 76, 76, 76, 77, 77, 78, 80, 80, 79, 79, 78, 78, 79, 80, 80, 79, 78, 76, 76, 76, 77, 76, 76, 76, 76, 75, 74, 75, 76, 77, 78, 79, 79, 79, 79, 79, 80, 81, 83, 83, 82, 81, 82, 82, 84, 86, 86, 87, 87, 85, 86, 85, 86, 85, 85, 83, 83, 82, 81, 81, 80, 78, 79, 80, 81, 80, 79, 79, 78, 76, 75, 75, 76, 76, 77, 79, 81, 82, 83, 84, 85, 86, 87, 87, 89, 89, 91, 93, 95, 97, 98, 100, 102, 105, 107, 111, 115, 118, 120, 123, 126, 132, 139, 149, 164, 179, 196, 215, 230, 242, 248, 246, 234, 210, 176, 137, 94, 54, 25, 11, 12, 22, 38, 55, 69, 78, 83, 85, 83, 81, 77, 74, 74, 74, 76, 78, 78, 78, 77, 76, 76, 74, 74, 75, 75, 76, 76, 76, 76, 76, 78, 79, 78, 77, 77, 77, 77, 76, 76, 76, 75, 76, 78, 77, 78, 78, 78, 78, 78, 76, 77, 77, 78, 79, 80, 81, 82, 81, 81, 82, 82, 82, 82, 83, 85, 86, 88, 89, 88, 85, 83, 82, 81, 81, 83, 85, 87, 88, 89, 88, 87, 86, 86, 85, 86, 88, 89, 89, 88, 89, 89, 87, 87, 87, 86, 85, 84, 83, 83, 82, 83, 83, 83, 83, 83, 81, 81, 80, 79, 78, 78, 78, 80, 83, 83, 85, 85, 85, 82, 81, 79, 78, 78, 78, 78, 79, 81, 81, 81, 79, 78, 76, 76, 76, 77, 78, 80, 82, 83, 81, 81, 81, 81, 81, 81, 81, 82, 82, 83, 82, 83, 82, 83, 83, 84, 83, 82, 82, 82, 82, 82, 83, 82, 82, 83, 82, 82, 81, 81, 81, 81, 81, 81, 82, 82, 82, 81, 81, 80, 80, 79, 80, 79, 79, 80, 81, 81, 81, 82, 81, 81, 80, 80, 80, 79, 79, 80, 80, 81, 80, 79, 80, 81, 80, 81, 81, 79, 81, 81, 82, 81, 81, 80, 79, 78, 78, 79, 80, 79, 80, 79, 81, 80, 81, 81, 81, 81, 81, 80, 79, 80, 81, 81, 82, 84, 84, 86, 87, 86, 83, 83, 80, 78, 78, 79, 80, 81, 83, 85, 83, 85, 86, 86, 85, 85, 83, 83, 83, 85, 87, 89, 91, 92, 93, 93, 92, 91, 93, 92, 93, 94, 94, 94, 92, 92, 89, 88, 89, 89, 88, 87, 85, 85, 83, 84, 85, 83, 83, 81, 80, 78, 79, 81, 82, 82, 85, 86, 86, 87, 85, 84, 85, 85, 88, 91, 93, 94, 95, 95, 96, 97, 101, 104, 107, 111, 114, 118, 121, 124, 127, 131, 135, 141, 149, 162, 176, 192, 209, 226, 239, 246, 244, 234, 214, 185, 149, 107, 65, 31, 11, 9, 20, 37, 56, 71, 81, 87, 86, 84, 81, 79, 79, 79, 78, 78, 79, 80, 80, 81, 79, 80, 79, 79, 80, 80, 80, 81, 81, 81, 79, 78, 77, 76, 77, 78, 80, 80, 82, 83, 86, 86, 85, 83, 80, 78, 77, 77, 77, 80, 81, 82, 83, 83, 84, 84, 83, 84, 83, 82, 83, 85, 85, 88, 89, 89, 89, 89, 90, 89, 88, 90, 91, 93, 92, 94, 94, 94, 94, 94, 94, 93, 94, 94, 94, 94, 94, 94, 94, 93, 92, 90, 89, 89, 89, 88, 87, 87, 88, 89, 88, 87, 86, 85, 83, 83, 83, 83, 82, 82, 83, 83, 83, 84, 83, 83, 82, 81, 82, 82, 81, 82, 82, 83, 84, 84, 84, 83, 83, 83, 82, 81, 82, 82, 83, 84, 85, 85, 85, 85, 84, 83, 83, 83, 84, 85, 85, 85, 86, 86, 86, 86, 85, 83, 83, 83, 84, 84, 85, 86, 85, 85, 85, 85, 83, 83, 83, 82, 83, 83, 84, 85, 84, 84, 84, 83, 83, 82, 82, 82, 83, 83, 82, 83, 83, 83, 82, 81, 82, 81, 81, 82, 81, 81, 81, 82, 83, 81, 82, 81, 81, 80, 81, 81, 81, 82, 83, 83, 83, 83, 84, 83, 82, 81, 81, 81, 81, 81, 82, 82, 83, 83, 83, 83, 82, 81, 81, 82, 82, 82, 82, 81, 81, 81, 82, 82, 81, 81, 80, 81, 81, 81, 82, 82, 82, 83, 82, 81, 82, 81, 82, 82, 82, 83, 84, 85, 86, 86, 87, 87, 89, 89, 89, 89, 90, 91, 92, 94, 96, 96, 96, 95, 94, 92, 91, 89, 89, 89, 89, 90, 89, 89, 88, 88, 85, 85, 85, 84, 83, 82, 82, 81, 81, 82, 82, 82, 83, 83, 84, 84, 86, 86, 87, 89, 90, 92, 93, 94, 95, 96, 98, 99, 101, 105, 108, 111, 116, 120, 123, 126, 127, 130, 133, 139, 147, 159, 174, 190, 206, 220, 232, 237, 235, 224, 205, 177, 144, 105, 66, 35, 17, 16, 26, 44, 61, 74, 83, 85, 86, 84, 81, 80, 79, 80, 80, 80, 80, 81, 80, 80, 79, 81, 81, 81, 81, 81, 81, 81, 81, 80, 80, 80, 79, 79, 79, 80, 80, 81, 81, 81, 81, 80, 80, 80, 80, 80, 81, 82, 83, 82, 83, 83, 81, 82, 81, 81, 82, 83, 84, 86, 86, 87, 88, 87, 87, 86, 87, 87, 88, 89, 89, 91, 91, 91, 91, 91, 91, 90, 90, 90, 90, 91, 92, 92, 92, 92, 92, 92, 91, 91, 89, 89, 88, 88, 87, 88, 87, 87, 86, 85, 85, 83, 82, 80, 81, 81, 81, 81, 83, 83, 81, 82, 81, 80, 80, 79, 80, 80, 81, 81, 82, 83, 83, 82, 81, 81, 81, 81, 81, 81, 81, 82, 83, 82, 82, 82, 82, 83, 83, 83, 82, 84, 83, 84, 84, 84, 84, 85, 85, 83, 84, 83, 83, 83, 83, 83, 84, 84, 83, 84, 83, 83, 82, 82, 82, 83, 83, 83, 84, 84, 83, 83, 81, 82, 81, 81, 81, 81, 81, 82, 82, 82, 82, 82, 81, 81, 80, 80, 80, 80, 81, 81, 81, 82, 81, 81, 80, 79, 78, 78, 79, 78, 80, 81, 81, 82, 82, 81, 81, 80, 81, 79, 80, 81, 81, 82, 81, 82, 81, 81, 80, 80, 79, 80, 80, 80, 81, 82, 81, 82, 81, 81, 81, 80, 81, 80, 81, 81, 82, 81, 82, 83, 82, 82, 81, 81, 81, 81, 81, 81, 81, 83, 83, 83, 83, 83, 82, 82, 82, 81, 81, 82, 82, 83, 84, 85, 86, 86, 87, 87, 87, 87, 89, 90, 90, 92, 93, 95, 95, 94, 94, 93, 92, 91, 92, 90, 90, 90, 89, 90, 88, 87, 86, 85, 83, 84, 84, 84, 83, 83, 81, 81, 80, 79, 79, 80, 81, 81, 81, 83, 83, 85, 86, 87, 88, 90, 90, 92, 93, 95, 97, 100, 103, 106, 109, 113, 116, 119, 123, 125, 128, 129, 133, 137, 146, 157, 170, 183, 197, 211, 220, 224, 220, 205, 183, 153, 118, 81, 49, 28, 19, 23, 34, 50, 63, 73, 80, 84, 84, 83, 80, 78, 78, 79, 79, 80, 80, 80, 80, 81, 81, 82, 82, 82, 83, 82, 81, 80, 80, 80, 81, 81, 81, 83, 83, 83, 83, 82, 83, 81, 82, 82, 81, 82, 81, 82, 83, 83, 83, 83, 83, 83, 83, 83, 84, 83, 84, 84, 85, 86, 86, 86, 87, 87, 87, 86, 85, 87, 88, 88, 89, 89, 89, 89, 89, 89, 89, 88, 89, 90, 92, 92, 93, 93, 94, 94, 93, 93, 92, 92, 92, 92, 92, 92, 91, 90, 88, 89, 87, 86, 87, 85, 85, 85, 86, 86, 86, 86, 86, 85, 85, 84, 84, 83, 84, 83, 84, 83, 85, 85, 85, 85, 85, 84, 84, 84, 85, 85, 85, 86, 87, 87, 87, 87, 87, 86, 86, 85, 86, 87, 87, 88, 89, 88, 88, 88, 87, 86, 87, 87, 87, 87, 87, 88, 88, 88, 87, 88, 86, 86, 86, 85, 86, 87, 87, 87, 87, 85, 86, 85, 86, 85, 84, 85, 85, 84, 85, 85, 84, 85, 85, 85, 85, 84, 83, 83, 83, 83, 83, 84, 84, 85, 84, 84, 83, 83, 82, 82, 82, 83, 83, 84, 84, 84, 84, 83, 83, 82, 82, 82, 82, 83, 83, 83, 83, 84, 83, 84, 83, 82, 82, 82, 82, 82, 83, 84, 83, 83, 83, 83, 83, 83, 83, 82, 83, 82, 83, 83, 83, 85, 84, 84, 84, 84, 84, 83, 84, 84, 85, 85, 86, 86, 86, 87, 87, 88, 88, 89, 90, 91, 92, 93, 95, 96, 97, 97, 96, 96, 95, 94, 94, 93, 93, 92, 92, 91, 90, 89, 87, 86, 85, 84, 85, 84, 83, 84, 84, 83, 82, 81, 81, 81, 81, 81, 81, 81, 81, 81, 81, 82, 82, 81, 81, 81, 80, 81, 80, 80, 81, 83, 84, 84, 85, 85, 83, 83, 83, 83, 85, 86, 89, 93, 100, 109, 120, 132, 146, 161, 179, 191, 200, 202, 194, 177, 151, 117, 81, 45, 18, 4, 5, 16, 30, 46, 60, 72, 80, 85, 88, 88, 89, 88, 87, 86, 87, 88, 89, 90, 92, 92, 92, 92, 92, 91, 91, 91, 92, 92, 94, 95, 95, 95, 96, 96, 95, 95, 96, 96, 97, 98, 100, 101, 101, 102, 102, 102, 102, 102, 103, 104, 106, 107, 107, 110, 109, 111, 111, 112, 113, 113, 114, 114, 114, 116, 116, 118, 120, 120, 122, 121, 120, 119, 118, 118, 119, 119, 120, 120, 120, 121, 121, 120, 120, 118, 117, 117, 116, 116, 116, 115, 114, 113, 112, 110, 108, 107, 105, 102, 101, 101, 98, 98, 97, 96, 96, 94, 93, 92, 91, 90, 88, 88, 89, 89, 89, 90, 89, 89, 89, 89, 89, 88, 88, 88, 89, 90, 90, 90, 90, 90, 89, 89, 90, 89, 90, 91, 92, 92, 93, 94, 93, 93, 91, 92, 92, 92, 91, 91, 92, 91, 92, 93, 91, 90, 91, 89, 89, 89, 89, 89, 90, 90, 89, 89, 89, 89, 88, 87, 87, 87, 87, 86, 86, 87, 87, 86, 87, 86, 86, 85, 86, 86, 85, 86, 86, 85, 86, 87, 87, 85, 85, 85, 83, 83, 84, 83, 84, 84, 84, 85, 85, 84, 84, 83, 84, 82, 83, 83, 83, 84, 84, 85, 83, 83, 83, 83, 83, 82, 83, 83, 84, 85, 85, 85, 84, 83, 83, 83, 83, 83, 83, 83, 84, 84, 84, 85, 85, 85, 85, 86, 87, 88, 88, 89, 91, 90, 90, 91, 92, 92, 92, 94, 95, 96, 96, 96, 96, 95, 94, 92, 92, 92, 91, 92, 89, 89, 87, 87, 87, 87, 87, 87, 86, 85, 82, 82, 80, 81, 80, 81, 83, 83, 85, 85, 85, 86, 87, 87, 89, 88, 90, 92, 94, 96, 98, 100, 101, 104, 106, 108, 111, 115, 117, 120, 124, 127, 131, 136, 142, 150, 161, 173, 186, 199, 211, 222, 227, 226, 216, 199, 173, 141, 105, 71, 46, 30, 28, 35, 46, 59, 69, 76, 81, 83, 83, 81, 80, 78, 77, 78, 78, 79, 79, 80, 80, 81, 80, 79, 80, 78, 78, 79, 80, 81, 81, 82, 82, 81, 80, 79, 79, 78, 79, 79, 80, 81, 81, 81, 81, 80, 80, 80, 79, 81, 79, 80, 81, 81, 83, 83, 83, 84, 83, 82, 81, 82, 82, 84, 85, 85, 87, 86, 88, 88, 87, 87, 87, 87, 86, 87, 88, 89, 90, 91, 91, 91, 91, 92, 90, 92, 91, 91, 92, 91, 92, 91, 90, 91, 89, 87, 87, 86, 86, 84, 85, 83, 83, 82, 83, 83, 83, 81, 81, 81, 82, 81, 82, 83, 83, 83, 83, 83, 81, 80, 81, 81, 81, 81, 82, 82, 83, 83, 83, 82, 82, 82, 82, 82, 82, 83, 84, 85, 86, 85, 85, 86, 85, 85, 84, 83, 83, 84, 84, 85, 85, 87, 87, 87, 85, 85, 83, 83, 83, 82, 82, 84, 85, 84, 84, 84, 83, 81, 81, 80, 81, 82, 83, 83, 83, 83, 82, 81, 82, 81, 81, 80, 80, 81, 81, 81, 80, 80, 81, 81, 81, 80, 81, 81, 80, 80, 81, 81, 81, 83, 84, 82, 82, 82, 82, 82, 81, 81, 81, 82, 82, 84, 83, 83, 82, 81, 81, 80, 80, 80, 81, 81, 81, 83, 82, 83, 82, 82, 82, 82, 81, 81, 82, 82, 83, 83, 83, 83, 83, 82, 81, 81, 81, 81, 83, 83, 84, 85, 86, 86, 86, 86, 86, 86, 87, 88, 89, 90, 90, 91, 91, 92, 92, 92, 92, 91, 92, 90, 89, 92, 90, 90, 88, 87, 86, 86, 85, 85, 85, 84, 83, 83, 82, 82, 82, 81, 81, 80, 80, 81, 81, 82, 84, 83, 84, 84, 85, 87, 87, 89, 89, 90, 92, 93, 96, 98, 100, 103, 106, 109, 111, 114, 117, 120, 123, 127, 131, 136, 144, 153, 165, 177, 192, 204, 215, 220, 220, 214, 199, 178, 150, 118, 85, 55, 34, 25, 27, 37, 50, 63, 72, 78, 81, 81, 80, 78, 76, 76, 76, 77, 76, 78, 78, 78, 78, 78, 78, 79, 78, 77, 78, 78, 78, 78, 78, 79, 79, 80, 80, 80, 79, 78, 76, 76, 76, 76, 76, 78, 77, 78, 79, 78, 78, 78, 76, 78, 77, 78, 79, 80, 81, 81, 83, 84, 84, 83, 83, 83, 83, 85, 85, 86, 87, 87, 87, 88, 88, 88, 88, 88, 89, 89, 89, 90, 90, 90, 90, 91, 91, 90, 89, 89, 88, 89, 89, 89, 88, 88, 88, 86, 86, 85, 85, 84, 83, 82, 82, 81, 82, 83, 82, 83, 83, 81, 81, 80, 81, 80, 80, 81, 82, 81, 80, 81, 81, 80, 79, 80, 81, 81, 82, 82, 81, 83, 83, 83, 83, 83, 83, 83, 82, 83, 83, 83, 84, 84, 85, 85, 84, 84, 84, 83, 83, 84, 84, 84, 85, 85, 85, 84, 84, 84, 84, 84, 83, 83, 83, 83, 85, 85, 85, 84, 84, 83, 81, 81, 79, 80, 81, 81, 82, 83, 82, 83, 82, 82, 82, 82, 81, 80, 80, 81, 81, 81, 81, 82, 81, 81, 81, 80, 81, 80, 81, 81, 82, 83, 82, 82, 82, 81, 81, 80, 79, 81, 81, 81, 82, 82, 82, 82, 81, 81, 80, 80, 80, 80, 80, 81, 81, 82, 81, 82, 81, 81, 80, 78, 79, 79, 81, 81, 81, 81, 81, 82, 81, 81, 81, 80, 79, 80, 82, 82, 83, 83, 83, 83, 83, 83, 82, 82, 82, 81, 82, 84, 84, 85, 87, 88, 88, 88, 88, 87, 88, 89, 91, 92, 94, 94, 94, 94, 92, 91, 90, 89, 89, 89, 89, 88, 88, 87, 85, 85, 84, 85, 83, 83, 82, 81, 81, 82, 81, 83, 82, 83, 83, 83, 83, 83, 83, 85, 87, 89, 91, 92, 94, 95, 96, 97, 99, 100, 103, 104, 108, 112, 116, 120, 123, 125, 128, 129, 131, 135, 141, 148, 159, 172, 183, 196, 206, 214, 215, 211, 200, 181, 159, 132, 104, 77, 54, 39, 37, 41, 50, 61, 71, 78, 82, 83, 84, 82, 81, 80, 79, 81, 82, 81, 80, 79, 80, 80, 81, 81, 82, 82, 83, 83, 83 }


no. 3600 point