{ 55, 55, 55, 55, 57, 57, 56, 57, 58, 58, 58, 57, 58, 57, 58, 59, 59, 59, 61, 62, 63, 62, 63, 63, 63, 63, 63, 65, 65, 66, 67, 67, 68, 68, 69, 69, 69, 69, 71, 71, 72, 74, 73, 72, 72, 72, 71, 70, 68, 67, 67, 65, 65, 64, 64, 64, 63, 62, 60, 59, 59, 59, 59, 61, 61, 61, 62, 62, 62, 62, 62, 62, 61, 62, 62, 63, 65, 66, 69, 71, 74, 77, 81, 88, 95, 103, 114, 127, 141, 154, 166, 175, 182, 188, 194, 202, 211, 216, 215, 202, 180, 151, 120, 90, 66, 51, 42, 40, 42, 46, 48, 51, 52, 53, 54, 54, 54, 53, 52, 52, 51, 50, 50, 50, 49, 50, 51, 50, 50, 50, 50, 50, 48, 49, 48, 48, 49, 49, 49, 49, 49, 48, 48, 47, 46, 46, 46, 46, 46, 47, 47, 46, 45, 45, 45, 44, 43, 43, 43, 43, 43, 43, 43, 43, 42, 42, 42, 41, 40, 41, 41, 41, 42, 42, 42, 42, 43, 43, 42, 43, 43, 45, 46, 47, 49, 50, 52, 53, 54, 55, 56, 57, 58, 61, 62, 63, 64, 65, 66, 65, 66, 65, 64, 63, 63, 64, 63, 64, 64, 65, 65, 64, 63, 62, 62, 62, 62, 62, 62, 62, 62, 62, 62, 62, 62, 61, 61, 61, 60, 59, 60, 59, 60, 60, 60, 59, 60, 59, 58, 57, 58, 58, 58, 58, 58, 59, 59, 60, 59, 59, 58, 58, 58, 57, 58, 59, 61, 61, 62, 62, 62, 62, 62, 62, 63, 64, 68, 71, 74, 77, 81, 87, 92, 98, 106, 116, 128, 143, 160, 177, 194, 211, 225, 237, 245, 249, 249, 249, 246, 242, 238, 230, 217, 200, 180, 156, 134, 112, 96, 83, 75, 70, 68, 67, 66, 65, 63, 60, 58, 55, 52, 50, 48, 48, 46, 44, 43, 43, 42, 41, 41, 41, 39, 39, 38, 37, 35, 36, 35, 35, 35, 35, 34, 34, 32, 31, 30, 29, 28, 27, 27, 27, 27, 26, 25, 24, 22, 20, 18, 17, 16, 15, 14, 13, 13, 12, 10, 9, 7, 6, 6, 5, 4, 4, 3, 3, 3, 3, 2, 3, 3, 3, 3, 5, 6, 7, 9, 11, 12, 14, 16, 17, 19, 20, 22, 23, 26, 29, 32, 34, 36, 38, 40, 41, 42, 45, 46, 47, 48, 49, 51, 53, 54, 55, 55, 56, 56, 56, 56, 56, 57, 57, 58, 58, 59, 59, 60, 59, 58, 58, 57, 57, 57, 58, 59, 59, 59, 58, 59, 57, 56, 56, 56, 56, 56, 57, 57, 57, 58, 57, 57, 57, 56, 57, 57, 57, 57, 58, 58, 59, 59, 60, 60, 60, 60, 59, 60, 59, 61, 61, 62, 63, 62, 63, 63, 62, 61, 61, 61, 62, 61, 62, 63, 64, 63, 64, 64, 63, 63, 63, 62, 62, 63, 63, 64, 63, 63, 64, 63, 63, 63, 63, 62, 61, 61, 62, 63, 64, 64, 64, 64, 63, 63, 63, 62, 62, 63, 61, 62, 64, 64, 64, 64, 63, 64, 63, 62, 62, 63, 63, 64, 63, 65, 65, 64, 64, 64, 63, 63, 62, 63, 63, 64, 65, 65, 65, 66, 65, 66, 66, 65, 65, 66, 66, 67, 68, 69, 69, 70, 69, 69, 70, 70, 71, 72, 73, 74, 74, 76, 75, 76, 75, 74, 72, 71, 71, 70, 69, 68, 68, 67, 66, 65, 64, 63, 62, 61, 61, 61, 61, 61, 62, 63, 63, 64, 64, 64, 64, 63, 63, 64, 64, 66, 67, 69, 72, 76, 81, 86, 94, 101, 110, 120, 133, 146, 160, 172, 184, 194, 203, 213, 222, 227, 225, 212, 187, 155, 121, 89, 67, 53, 48, 47, 50, 52, 54, 54, 54, 54, 53, 54, 52, 51, 51, 51, 50, 50, 50, 49, 49, 49, 49, 49, 49, 50, 50, 49, 48, 48, 47, 47, 48, 48, 48, 48, 48, 48, 47, 47, 46, 45, 45, 46, 45, 45, 45, 45, 46, 45, 43, 42, 42, 41, 41, 41, 41, 41, 42, 42, 42, 40, 41, 40, 39, 38, 38, 38, 38, 38, 39, 39, 38, 38, 38, 37, 37, 37, 36, 37, 37, 38, 39, 40, 40, 41, 41, 42, 42, 43, 43, 45, 46, 48, 49, 52, 53, 54, 55, 55, 56, 57, 57, 57, 58, 59, 59, 60, 61, 61, 61, 61, 60, 59, 60, 60, 61, 60, 62, 63, 62, 61, 61, 60, 59, 59, 59, 58, 59, 60, 59, 60, 60, 60, 59, 59, 58, 57, 57, 57, 57, 57, 58, 59, 58, 57, 57, 57, 56, 55, 54, 54, 55, 55, 55, 55, 54, 54, 55, 54, 54, 54, 53, 53, 53, 54, 55, 55, 54, 55, 56, 56, 57, 58, 57, 57, 58, 59, 60, 61, 61, 63, 63, 63, 64, 64, 64, 65, 66, 68, 68, 70, 71, 72, 72, 71, 71, 71, 70, 69, 69, 69, 68, 68, 67, 66, 65, 64, 63, 61, 61, 60, 60, 60, 60, 59, 60, 58, 58, 58, 57, 57, 58, 58, 59, 59, 60, 61, 61, 62, 62, 63, 62, 64, 65, 66, 68, 72, 77, 82, 88, 97, 107, 119, 133, 146, 160, 172, 182, 194, 205, 216, 220, 214, 198, 171, 141, 109, 82, 64, 53, 50, 50, 52, 54, 55, 56, 56, 55, 54, 53, 53, 53, 53, 53, 53, 54, 54, 53, 52, 51, 51, 50, 51, 50, 51, 53, 52, 53, 53, 51, 50, 50, 50, 49, 49, 48, 49, 49, 50, 50, 50, 50, 50, 48, 47, 47, 47, 47, 47, 47, 47, 47, 46, 46, 45, 45, 44, 44, 43, 43, 43, 43, 43, 42, 43, 42, 42, 41, 41, 41, 41, 42, 42, 43, 44, 44, 45, 45, 45, 45, 46, 47, 48, 48, 50, 51, 54, 54, 55, 56, 56, 57, 58, 59, 61, 62, 64, 65, 66, 66, 66, 66, 66, 66, 65, 65, 65, 65, 66, 66, 66, 66, 65, 65, 65, 65, 64, 63, 64, 64, 64, 64, 65, 64, 64, 64, 64, 63, 63, 63, 62, 62, 63, 62, 63, 63, 63, 62, 62, 61, 59, 59, 59, 60, 61, 61, 61, 61, 61, 60, 59, 59, 59, 58, 58, 60, 60, 62, 62, 63, 62, 62, 61, 62, 62, 62, 64, 65, 67, 69, 72, 75, 79, 83, 88, 93, 100, 107, 117, 128, 141, 154, 170, 184, 198, 213, 224, 233, 240, 243, 242, 240, 238, 233, 226, 213, 194, 168, 140, 111, 88, 71, 61, 55, 54, 54, 54, 51, 49, 46, 43, 41, 40, 39, 38, 38, 38, 37, 38, 37, 36, 35, 34, 33, 33, 32, 31, 31, 30, 30, 30, 29, 27, 26, 25, 24, 23, 22, 22, 20, 19, 19, 18, 17, 16, 15, 13, 12, 11, 9, 9, 8, 7, 5, 6, 5, 5, 4, 3, 2, 1, 0, 0, 0, 1, 1, 3, 3, 4, 5, 6, 7, 8, 10, 13, 15, 18, 21, 24, 26, 29, 30, 32, 35, 36, 38, 41, 42, 45, 46, 48, 49, 50, 51, 51, 51, 52, 51, 53, 53, 54, 54, 55, 55, 55, 56, 55, 55, 54, 54, 55, 54, 56, 56, 55, 55, 55, 54, 54, 53, 53, 53, 51, 51, 52, 53, 53, 53, 52, 52, 51, 51, 50, 50, 50, 50, 50, 51, 52, 53, 52, 53, 53, 52, 53, 52, 53, 54, 54, 55, 56, 57, 57, 56, 56, 56, 55, 55, 56, 55, 56, 56, 57, 58, 57, 58, 58, 57, 57, 57, 57, 57, 57, 58, 59, 59, 58, 58, 58, 57, 57, 57, 57, 57, 57, 57, 58, 58, 59, 59, 58, 57, 56, 56, 57, 57, 58, 58, 58, 58, 58, 58, 59, 58, 58, 57, 58, 57, 58, 59, 60, 59, 60, 60, 59, 59, 59, 59, 60, 60, 62, 62, 62, 63, 63, 64, 63, 63, 63, 63, 64, 65, 66, 66, 67, 68, 69, 69, 68, 69, 69, 69, 69, 68, 67, 67, 66, 64, 63, 62, 62, 60, 59, 58, 58, 58, 57, 56, 57, 57, 57, 57, 58, 57, 58, 57, 58, 58, 59, 59, 59, 60, 61, 62, 63, 64, 65, 68, 73, 78, 86, 94, 106, 120, 137, 154, 169, 182, 193, 203, 215, 223, 221, 204, 174, 136, 96, 65, 45, 36, 35, 40, 46, 50, 54, 55, 55, 54, 53, 51, 51, 50, 49, 49, 49, 49, 49, 49, 49, 49, 48, 48, 48, 49, 48, 48, 48, 48, 48, 49, 50, 48, 49, 49, 48, 48, 48, 47, 46, 46, 46, 47, 48, 47, 47, 47, 46, 45, 45, 45, 44, 45, 45, 45, 45, 45, 45, 43, 42, 42, 41, 41, 41, 41, 41, 42, 42, 43, 43, 43, 42, 42, 43, 44, 45, 45, 47, 48, 49, 50, 50, 51, 51, 51, 53, 53, 56, 57, 59, 62, 63, 64, 66, 66, 66, 67, 66, 67, 67, 67, 68, 69, 69, 69, 69, 69, 69, 68, 67, 67, 68, 67, 68, 69, 67, 69, 67, 67, 67, 66, 66, 66, 66, 66, 66, 66, 66, 67, 66, 66, 66, 65, 64, 64, 63, 63, 63, 64, 63, 63, 62, 62, 61, 59, 58, 58, 58, 58, 58, 59, 59, 60, 59, 59, 59, 59, 59, 59, 59, 60, 62, 62, 63, 65, 65, 65, 65, 65, 65, 65, 66, 66, 68, 70, 71, 72, 72, 73, 73, 73, 72, 73, 73, 73, 73, 73, 73, 73, 72, 71, 70, 67, 66, 65, 65, 64, 64, 63, 63, 63, 63, 63, 62, 63, 60, 60, 60, 61, 62, 63, 64, 64, 65, 65, 65, 66, 66, 67, 70, 72, 77, 82, 89, 97, 105, 116, 129, 142, 157, 169, 181, 192, 203, 214, 227, 234, 235, 223, 199, 168, 133, 100, 74, 57, 49, 48, 50, 54, 55, 56, 57, 57, 56, 55, 55, 55, 55, 54, 54, 54, 54, 53, 53, 52, 51, 52, 51, 51, 51, 51, 52, 52, 51, 52, 50, 50, 50, 49, 49, 48, 49, 48, 48, 48, 47, 47, 46, 46, 46, 46, 46, 45, 45, 46, 46, 45, 45, 44, 43, 42, 41, 41, 41, 40, 40, 41, 41, 41, 40, 40, 40, 40, 41, 41, 41, 41, 42, 43, 45, 46, 46, 46, 48, 47, 48, 49, 50, 51, 53, 54, 56, 57, 58, 59, 60, 61, 61, 61, 62, 62, 63, 64, 64, 64, 63, 63, 63, 63, 62, 62, 62, 63, 63, 63, 64, 64, 63, 63, 62, 62, 61, 60, 61, 61, 61, 61, 62, 61, 61, 61, 61, 60, 59, 59, 59, 59, 59, 59, 60, 60, 59, 59, 58, 58, 58, 56, 57, 57, 56, 57, 58, 58, 58, 58, 57, 57, 57, 56, 56, 57, 57, 58, 59, 60, 60, 61, 60, 61, 61, 61, 62, 62, 64, 66, 69, 72, 74, 76, 81, 88, 94, 101, 111, 120, 134, 146, 161, 176, 190, 204, 216, 226, 233, 236, 235, 232, 226, 219, 209, 196, 177, 155, 130, 107, 86, 72, 61, 56, 53, 52, 51, 51, 49, 48, 46, 44, 42, 40, 40, 39, 39, 39, 39, 39, 38, 38, 36, 35, 34, 34, 34, 33, 33, 32, 32, 33, 32, 31, 30, 30, 29, 28, 27, 27, 27, 26, 26, 26, 26, 25, 23, 22, 21, 20, 19, 19, 18, 18, 17, 16, 15, 13, 13, 10, 10, 8, 7, 7, 7, 6, 6, 6, 5, 4, 4, 4, 3, 3, 3, 4, 5, 6, 7, 9, 10, 10, 11, 12, 13, 15, 16, 18, 21, 23, 25, 27, 30, 32, 33, 35, 37, 38, 40, 41, 44, 45, 46, 48, 48, 49, 50, 49, 50, 50, 50, 50, 51, 53, 54, 54, 54, 54, 53, 53, 52, 51, 52, 53, 53, 53, 54, 55, 54, 55, 54, 54, 52, 52, 52, 52, 51, 53, 54, 54, 53, 52, 52, 51, 51, 50, 50, 51, 51, 51, 52, 53, 53, 54, 53, 53, 53, 53, 53, 53, 54, 54, 55, 56, 56, 56, 56, 56, 56, 55, 56, 55, 56, 57, 57, 58, 58, 57, 57, 57, 57, 57, 56, 57, 58, 58, 58, 59, 59, 59, 58, 58, 58, 57, 58, 58, 57, 59, 58, 60, 60, 59, 59, 59, 59, 57, 59, 59, 60, 61, 61, 62, 62, 62, 62, 62, 62, 62, 63, 63, 63, 63, 64, 64, 66, 66, 66, 67, 67, 68, 69, 71, 71, 71, 73, 73, 73, 73, 73, 72, 72, 71, 70, 69, 69, 68, 67, 66, 65, 64, 62, 62, 61, 60, 59, 58, 60, 60, 60, 61, 61, 61, 60, 61, 61, 61, 60, 61, 62, 63, 63, 64, 66, 67, 69, 72, 76, 83, 91, 102, 115, 132, 149, 166, 181, 195, 208, 219, 227, 227, 212, 184, 150, 114, 82, 59, 47, 44, 46, 49, 53, 54, 54, 55, 54, 55, 55, 54, 53, 53, 53, 52, 51, 51, 50, 50, 51, 51, 51, 51, 51, 50, 51, 50, 49, 49, 48, 49, 50, 49, 50, 50, 49, 49, 48, 48, 48, 47, 47, 46, 46, 46, 47, 47, 46, 46, 45, 44, 43, 43, 43, 43, 43, 43, 43, 43, 42, 42, 41, 40, 40, 40, 39, 39, 38, 40, 40, 40, 40, 41, 40, 40, 40, 39, 39, 40, 41, 42, 42, 44, 45, 46, 46, 47, 48, 48, 48, 50, 51, 54, 55, 56, 57, 58, 59, 60, 60, 61, 62, 62, 64, 64, 64, 66, 66, 66, 66, 65, 65, 64, 64, 63, 64, 64, 64, 66, 66, 65, 65, 64, 63, 62, 62, 63, 63, 62, 63, 63, 64, 64, 63, 62, 62, 61, 61, 61, 61, 61, 60, 62, 61, 61, 61, 59, 58, 58, 57, 57, 57, 58, 57, 57, 56, 57, 56, 56, 56, 55, 55, 55, 56, 56, 57, 57, 57, 57, 57, 58, 57, 58, 58, 59, 61, 62, 62, 64, 64, 65, 65, 64, 65, 67, 67, 68, 70, 71, 72, 72, 72, 72, 70, 70, 69, 67, 67, 66, 66, 65, 65, 65, 63, 62, 60, 60, 58, 58, 58, 59, 59, 60, 61, 61, 61, 61, 61, 62, 61, 61, 62, 62, 63, 65, 67, 71, 74, 79, 85, 94, 102, 115, 130, 146, 162, 175, 186, 197, 207, 218, 224, 220, 201, 172, 135, 97, 67, 47, 38, 38, 42, 46, 50, 53, 53, 53, 53, 53, 52, 53, 52, 53, 52, 51, 51, 50, 50, 49, 50, 49, 49, 49, 49, 50, 50, 49, 49, 49, 48, 47, 47, 47, 47, 47, 47, 47, 47, 47, 46, 45, 44, 44, 45, 44, 45, 45, 45, 44, 43, 43, 42, 42, 41, 40, 41, 41, 40, 41, 41, 42, 42, 41, 41, 41, 41, 41, 42, 42, 43, 45, 45, 46, 47, 47, 47, 48, 49, 50, 51, 53, 54, 56, 58, 58, 61, 62, 63, 64, 64, 65, 65, 65, 66, 66, 66, 66, 66, 66, 66, 65, 65, 65, 64, 64, 63, 63, 63, 64, 65, 65, 64, 63, 63, 62, 62, 62, 63, 64, 63, 63, 63, 63, 62, 61, 61, 60, 60, 61, 60, 62, 61, 61, 61, 62, 61, 60, 59, 58, 59, 59, 59, 59, 60, 61, 60, 60, 59, 59, 59, 58, 58, 58, 58, 60, 61, 63, 63, 64, 63, 64, 65, 65, 66, 68, 70, 72, 76, 80, 84, 89, 94, 102, 111, 121, 134, 151, 171, 190, 209, 226, 240, 249, 254, 255, 254, 249, 245, 237, 226, 210, 190, 166, 141, 115, 93, 76, 65, 59, 57, 55, 55, 55, 54, 54, 51, 50, 48, 46, 45, 45, 42, 43, 42, 42, 42, 42, 41, 41, 40, 39, 38, 36, 36, 35, 35, 34, 34, 35, 33, 33, 31, 30, 30, 28, 28, 27, 26, 25, 25, 25, 24, 22, 21, 19, 17, 16, 14, 12, 12, 10, 9, 9, 8, 7, 6, 5, 5, 3, 2, 2, 2, 4, 4, 5, 6, 6, 7, 7, 8, 9, 11, 13, 14, 16, 19, 23, 25, 26, 29, 31, 33, 35, 36, 39, 41, 42, 45, 47, 49, 50, 51, 52, 52, 53, 53, 53, 54, 56, 57, 58, 58, 59, 59, 59, 58, 59, 58, 58, 59, 60, 59, 60, 59, 60, 59, 59, 58, 58, 57, 57, 56, 58, 58, 58, 58, 57, 57, 57, 56, 55, 56, 55, 55, 55, 55, 56, 57, 57, 57, 57, 56, 56, 57, 55, 57, 59, 59, 60, 60, 59, 59, 59, 60, 59, 60, 61, 61, 62, 62, 63, 63, 63, 62, 61, 61, 61, 61, 61, 62, 62, 64, 64, 64, 64, 63, 63, 63, 63, 62, 62, 63, 63, 64, 64, 64, 65, 64, 64, 63, 63, 63, 63, 63, 64, 65, 65, 65, 64, 65, 64, 64, 64, 64, 65, 65, 67, 67, 68, 68, 68, 68, 68, 67, 67, 68, 69, 70, 71, 72, 73, 74, 74, 75, 74, 74, 75, 74, 74, 74, 73, 73, 73, 73, 72, 70, 69, 69, 67, 66, 66, 65, 65, 64, 64, 63, 64, 63, 62, 62, 62, 62, 63, 63, 64, 65, 65, 66, 66, 66, 66, 66, 67, 69, 71, 74, 81, 87, 96, 106, 119, 133, 149, 163, 178, 191, 204, 216, 226, 231, 225, 206, 177, 142, 106, 77, 58, 49, 47, 49, 53, 56, 57, 58, 58, 57, 56, 55, 54, 53, 53, 52, 53, 53, 53, 53, 52, 51, 51, 51, 51, 50, 50, 50, 51, 50, 50, 51, 50, 49, 49, 49, 48, 48, 47, 47, 47, 47, 47, 47, 47, 46, 46, 45, 44, 43, 43, 43, 43, 43, 43, 43, 43, 42, 40, 39, 40, 39, 37, 38, 39, 38, 39, 39, 40, 40, 40, 40, 40, 39, 39, 40, 42, 42, 43, 44, 45, 45, 45, 47, 47, 48, 48, 50, 51, 52, 54, 54, 55, 56, 57, 58, 58, 59, 59, 60, 61, 61, 62, 63, 63, 63, 63, 62, 61, 61, 61, 62, 62, 63, 63, 64, 63, 63, 63, 62, 61, 61, 61, 61, 62, 63, 62, 63, 62, 61, 61, 61, 60, 60, 59, 61, 61, 61, 61, 61, 61, 59, 59, 58, 57, 56, 57, 58, 58, 58, 58, 58, 57, 56, 56, 55, 54, 54, 54, 55, 55, 56, 55, 55, 55, 56, 56, 56, 56, 56, 56, 57, 58, 59, 60, 61, 61, 61, 61, 62, 62, 63, 63, 64, 66, 67, 69, 69, 71, 71, 72, 72, 71, 70, 70, 70, 70, 69, 70, 69, 67, 66, 65, 64, 63, 61, 61, 60, 59, 59, 59, 59, 60, 58, 59, 58, 60, 59, 59, 60, 61, 61, 62, 62, 63, 62, 63, 64, 65, 66, 69, 72, 76, 82, 89, 96, 105, 116, 128, 141, 153, 165, 176, 186, 197, 208, 218, 221, 214, 195, 167, 134, 100, 74, 57, 49, 47, 49, 54, 57, 58, 57, 57, 57, 56, 54, 53, 54, 53, 51, 54, 54, 53, 53, 53, 51, 51, 51, 50, 51, 51, 51, 51, 51, 51, 50, 50, 49, 49, 48, 48, 48, 48, 48, 48, 48, 48, 48, 48, 47, 46, 45, 45, 46, 45, 45, 46, 45, 45, 44, 43, 42, 41, 41, 41, 41, 41, 42, 42, 42, 42, 42, 42, 42, 42, 41, 42, 43, 44, 45, 46, 47, 47, 49, 49, 50, 51, 52, 53, 54, 56, 57, 59, 60, 61, 62, 62, 62, 63, 63, 64, 64, 64, 65, 66, 66, 66, 65, 65, 65, 64, 65, 65, 65, 65, 66, 66, 66, 65, 66, 65, 65, 64, 64, 64, 64, 65, 65, 65, 65, 65, 64, 64, 64, 63, 63, 63, 63, 64, 64, 64, 64, 63, 63, 63, 63, 61, 62, 61, 62, 62, 63, 63, 64, 64, 64, 63, 63, 62, 61, 62, 64, 66, 68, 70, 73, 76, 80, 83, 89, 96, 103, 113, 125, 138, 153, 168, 181, 195, 208, 218, 226, 232, 235, 236, 234, 233, 229, 224, 215, 203, 185, 161, 137, 115, 97, 84, 77, 71, 69, 66, 66, 64, 61, 57, 56, 53, 51, 50, 48, 47, 46, 45, 44, 42, 41, 41, 39, 39, 39, 39, 38, 38, 37, 38, 37, 36, 35, 34, 33, 33, 31, 31, 31, 30, 30, 30, 30, 29, 27, 26, 24, 22, 21, 21, 21, 19, 19, 18, 17, 16, 15, 13, 11, 10, 9, 8, 7, 7, 8, 7, 7, 6, 5, 4, 3, 3, 5, 6, 7, 8, 10, 12, 13, 14, 14, 16, 17, 18, 20, 23, 24, 28, 30, 34, 37, 38, 40, 42, 44, 45, 45, 47, 49, 51, 53, 54, 56, 56, 57, 57, 57, 57, 57, 58, 59, 59, 60, 61, 61, 61, 62, 61, 61, 61, 59, 59, 59, 60, 61, 61, 61, 61, 61, 60, 59, 58, 58, 58, 58, 59, 58, 58, 58, 59, 58, 57, 58, 58, 57, 58, 59, 60, 61, 62, 63, 63, 63, 64, 65, 64, 64, 64, 64, 65, 66, 68, 69, 70, 71, 72, 72, 72, 71, 71, 71, 70, 69, 70, 69, 68, 67, 66, 65, 64, 63, 62, 61, 62, 61, 61, 62, 62, 62, 61, 61, 61, 61, 61, 61, 63, 62, 63, 64, 65, 65, 64, 65, 64, 64, 66, 69, 71, 74, 79, 84, 90, 98, 108, 120, 134, 148, 162, 175, 186, 197, 206, 217, 224, 224, 211, 187, 155, 120, 89, 66, 53, 46, 47, 49, 53, 56, 55, 56, 56, 56, 56, 57, 57, 57, 57, 57, 57, 56, 56, 55, 54, 54, 55, 55, 55, 55, 55, 55, 54, 54, 53, 53, 52, 52, 52, 51, 53, 53, 52, 52, 52, 51, 51, 50, 49, 49, 50, 49, 49, 48, 48, 49, 48, 48, 48, 47, 47, 46, 45, 45, 45, 44, 45, 46, 45, 45, 45 }



no. 3600 point