{ 135, 135, 135, 135, 135, 135, 135, 137, 137, 135, 134, 133, 131, 130, 127, 122, 118, 115, 113, 110, 111, 113, 113, 114, 114, 114, 114, 113, 113, 113, 112, 112, 108, 108, 110, 113, 114, 114, 112, 110, 110, 108, 109, 109, 109, 109, 109, 110, 109, 111, 111, 112, 113, 112, 114, 116, 120, 129, 142, 160, 176, 188, 192, 191, 192, 195, 202, 212, 224, 235, 237, 229, 201, 159, 112, 72, 44, 32, 26, 24, 20, 13, 9, 9, 11, 18, 19, 20, 22, 26, 29, 34, 44, 54, 65, 77, 88, 97, 103, 106, 105, 103, 103, 106, 110, 114, 110, 102, 97, 99, 110, 121, 123, 120, 116, 113, 112, 115, 118, 120, 118, 115, 111, 108, 109, 109, 107, 106, 103, 102, 103, 102, 100, 100, 100, 100, 104, 107, 106, 105, 99, 98, 100, 99, 97, 94, 95, 99, 105, 105, 103, 100, 96, 89, 82, 75, 72, 73, 79, 84, 88, 93, 99, 105, 104, 99, 94, 91, 92, 95, 99, 103, 106, 111, 113, 115, 116, 117, 114, 113, 113, 115, 120, 123, 127, 130, 131, 130, 130, 127, 123, 119, 116, 115, 122, 128, 130, 133, 133, 128, 127, 123, 121, 123, 125, 125, 124, 123, 127, 127, 129, 126, 124, 124, 126, 127, 122, 116, 114, 114, 119, 125, 126, 127, 126, 126, 126, 126, 125, 126, 125, 121, 115, 112, 115, 122, 125, 128, 129, 123, 117, 113, 114, 117, 123, 130, 133, 132, 127, 122, 115, 115, 117, 122, 125, 128, 126, 125, 124, 123, 121, 122, 122, 121, 120, 123, 124, 126, 130, 132, 131, 131, 126, 123, 122, 121, 125, 129, 128, 127, 124, 127, 132, 136, 135, 132, 131, 133, 136, 142, 145, 148, 149, 148, 143, 140, 135, 135, 135, 136, 137, 134, 133, 131, 138, 145, 150, 152, 150, 144, 137, 129, 126, 128, 131, 134, 133, 132, 129, 124, 118, 114, 112, 111, 110, 113, 115, 119, 124, 126, 126, 123, 121, 118, 117, 120, 118, 119, 119, 118, 121, 123, 123, 128, 131, 132, 129, 122, 114, 114, 120, 128, 133, 133, 128, 124, 118, 120, 128, 140, 153, 167, 175, 179, 179, 179, 183, 196, 217, 240, 254, 253, 234, 198, 154, 114, 88, 70, 61, 53, 42, 29, 22, 14, 11, 10, 12, 15, 16, 16, 17, 19, 24, 31, 36, 39, 43, 53, 64, 77, 90, 100, 106, 108, 109, 108, 106, 103, 104, 109, 116, 122, 122, 120, 115, 112, 110, 111, 113, 114, 117, 119, 120, 118, 117, 114, 113, 113, 113, 115, 114, 112, 109, 107, 105, 103, 102, 100, 102, 103, 105, 105, 104, 104, 103, 101, 96, 91, 90, 92, 97, 102, 104, 104, 97, 89, 84, 86, 94, 100, 104, 103, 98, 94, 93, 92, 95, 100, 99, 100, 100, 102, 102, 104, 107, 112, 118, 122, 121, 119, 115, 115, 118, 122, 122, 124, 124, 124, 128, 130, 130, 127, 125, 129, 132, 135, 135, 133, 129, 125, 125, 124, 125, 127, 132, 135, 137, 136, 133, 132, 132, 132, 133, 134, 133, 128, 123, 122, 124, 129, 132, 131, 127, 126, 124, 125, 124, 120, 119, 121, 123, 127, 129, 131, 132, 131, 129, 129, 129, 126, 124, 121, 124, 129, 132, 132, 127, 124, 123, 125, 128, 128, 125, 123, 123, 125, 130, 131, 134, 134, 133, 131, 127, 126, 129, 133, 135, 133, 132, 132, 133, 132, 129, 128, 129, 132, 133, 135, 133, 129, 127, 124, 126, 128, 131, 132, 132, 133, 133, 132, 133, 135, 136, 139, 141, 142, 142, 144, 146, 146, 147, 147, 148, 147, 146, 143, 141, 138, 137, 140, 146, 150, 154, 152, 149, 146, 146, 148, 143, 136, 129, 126, 128, 130, 132, 135, 134, 131, 129, 128, 126, 125, 123, 122, 121, 121, 120, 123, 125, 128, 129, 126, 123, 120, 116, 117, 119, 122, 122, 120, 119, 122, 125, 125, 126, 123, 120, 118, 118, 119, 117, 116, 118, 127, 141, 156, 171, 181, 183, 180, 176, 179, 192, 213, 237, 254, 255, 238, 204, 163, 122, 88, 62, 46, 37, 34, 31, 30, 26, 20, 17, 13, 14, 17, 16, 17, 18, 23, 27, 34, 41, 48, 57, 69, 81, 92, 102, 108, 109, 108, 107, 105, 107, 109, 114, 118, 118, 120, 122, 121, 115, 107, 102, 100, 106, 111, 117, 120, 123, 123, 122, 119, 112, 105, 102, 103, 104, 106, 105, 105, 104, 104, 100, 97, 92, 90, 90, 91, 94, 97, 98, 100, 101, 98, 94, 92, 89, 87, 85, 85, 86, 90, 97, 99, 99, 100, 97, 94, 92, 89, 88, 89, 90, 93, 96, 100, 103, 104, 107, 107, 110, 113, 114, 116, 117, 118, 113, 107, 104, 113, 122, 130, 134, 134, 132, 127, 124, 124, 125, 125, 123, 122, 123, 124, 126, 125, 125, 123, 124, 123, 122, 122, 123, 120, 116, 112, 116, 124, 132, 137, 137, 135, 129, 123, 118, 115, 114, 117, 119, 120, 119, 117, 115, 116, 118, 124, 126, 127, 126, 124, 122, 118, 117, 120, 124, 128, 129, 126, 125, 123, 122, 122, 120, 119, 117, 115, 117, 120, 123, 124, 127, 127, 128, 128, 127, 125, 125, 125, 122, 121, 121, 124, 129, 135, 140, 141, 139, 133, 128, 123, 123, 124, 125, 128, 127, 126, 124, 123, 124, 125, 129, 129, 133, 135, 133, 132, 132, 133, 138, 139, 139, 141, 143, 143, 143, 142, 142, 145, 146, 146, 144, 142, 138, 134, 131, 133, 136, 143, 148, 151, 155, 153, 148, 141, 128, 123, 123, 126, 129, 133, 132, 132, 129, 130, 127, 123, 116, 111, 113, 114, 116, 119, 121, 123, 123, 124, 125, 127, 132, 134, 132, 132, 129, 129, 128, 129, 125, 125, 126, 125, 125, 122, 118, 116, 114, 114, 118, 125, 134, 145, 158, 170, 184, 193, 196, 196, 193, 196, 201, 215, 230, 241, 242, 227, 197, 157, 116, 80, 56, 39, 30, 26, 23, 23, 24, 23, 20, 16, 14, 12, 11, 10, 12, 16, 26, 36, 47, 61, 75, 86, 97, 103, 106, 106, 107, 108, 111, 114, 115, 117, 113, 107, 104, 108, 113, 116, 116, 117, 114, 112, 110, 109, 107, 108, 108, 108, 107, 106, 106, 106, 105, 104, 102, 101, 99, 99, 98, 98, 97, 96, 96, 94, 92, 91, 91, 89, 89, 89, 91, 91, 89, 87, 85, 82, 85, 88, 90, 90, 91, 90, 89, 90, 89, 91, 93, 96, 97, 99, 101, 100, 100, 101, 103, 106, 109, 111, 112, 115, 118, 119, 119, 117, 115, 115, 118, 120, 123, 124, 124, 124, 125, 124, 124, 122, 123, 124, 123, 124, 124, 122, 122, 123, 122, 122, 123, 121, 123, 122, 122, 123, 122, 120, 119, 118, 119, 118, 117, 117, 118, 119, 119, 120, 120, 121, 122, 122, 119, 118, 120, 121, 123, 122, 119, 117, 116, 114, 115, 117, 115, 115, 115, 114, 116, 114, 115, 115, 116, 118, 117, 118, 117, 118, 117, 120, 120, 120, 121, 119, 116, 116, 115, 113, 112, 111, 110, 112, 114, 115, 115, 114, 115, 114, 114, 116, 117, 117, 120, 121, 123, 124, 124, 123, 124, 123, 121, 121, 123, 124, 123, 123, 124, 123, 124, 125, 128, 132, 136, 138, 139, 140, 137, 135, 133, 130, 129, 128, 129, 131, 134, 138, 138, 139, 138, 137, 134, 133, 132, 129, 127, 125, 124, 123, 122, 123, 122, 123, 122, 122, 121, 120, 118, 119, 120, 119, 117, 115, 114, 113, 113, 112, 112, 114, 114, 114, 114, 115, 114, 113, 109, 107, 104, 103, 104, 107, 110, 111, 112, 112, 114, 114, 119, 128, 138, 151, 165, 180, 191, 196, 196, 194, 195, 199, 208, 220, 233, 240, 240, 227, 202, 167, 128, 93, 65, 47, 37, 34, 30, 27, 25, 22, 20, 20, 19, 17, 17, 16, 18, 20, 22, 27, 35, 45, 58, 71, 86, 96, 105, 111, 113, 111, 112, 110, 111, 114, 117, 119, 120, 121, 121, 120, 118, 116, 116, 115, 115, 116, 117, 118, 116, 115, 113, 112, 110, 109, 110, 110, 108, 108, 107, 107, 109, 107, 105, 103, 100, 99, 97, 97, 97, 97, 96, 97, 96, 95, 96, 94, 94, 92, 90, 90, 88, 89, 90, 91, 92, 94, 93, 94, 94, 94, 96, 93, 97, 99, 102, 104, 105, 106, 107, 107, 108, 110, 112, 113, 114, 116, 118, 120, 120, 122, 124, 124, 124, 125, 125, 126, 126, 129, 129, 131, 132, 131, 132, 132, 131, 130, 129, 130, 130, 130, 131, 131, 133, 132, 133, 131, 130, 131, 130, 130, 130, 129, 131, 132, 132, 130, 131, 130, 129, 128, 130, 129, 128, 129, 130, 130, 132, 132, 130, 130, 127, 128, 127, 128, 127, 131, 130, 132, 132, 131, 132, 131, 130, 130, 129, 129, 130, 131, 132, 133, 133, 132, 130, 130, 131, 131, 130, 130, 131, 132, 131, 133, 133, 133, 133, 132, 132, 132, 132, 130, 131, 133, 135, 135, 136, 134, 134, 137, 136, 136, 136, 136, 139, 139, 141, 143, 145, 146, 145, 145, 146, 147, 149, 150, 152, 151, 151, 152, 153, 149, 148, 145, 144, 145, 147, 150, 153, 156, 156, 157, 155, 149, 147, 144, 142, 140, 140, 138, 136, 137, 135, 136, 137, 136, 133, 133, 132, 132, 132, 132, 131, 133, 134, 134, 134, 133, 134, 134, 134, 133, 134, 134, 134, 136, 134, 136, 136, 136, 135, 132, 131, 129, 128, 129, 134, 143, 156, 171, 184, 194, 196, 196, 193, 189, 192, 197, 210, 226, 239, 246, 240, 217, 182, 145, 111, 87, 71, 61, 54, 51, 46, 43, 41, 39, 38, 37, 36, 37, 37, 35, 39, 43, 48, 57, 72, 86, 100, 113, 122, 127, 131, 130, 130, 132, 133, 134, 137, 135, 136, 135, 133, 132, 132, 130, 131, 129, 132, 131, 132, 132, 130, 128, 127, 124, 123, 122, 122, 120, 122, 122, 122, 122, 118, 117, 116, 115, 113, 111, 110, 108, 107, 106, 104, 102, 100, 98, 96, 93, 93, 90, 89, 90, 93, 93, 97, 97, 100, 102, 104, 107, 110, 112, 114, 117, 119, 121, 124, 124, 126, 128, 128, 128, 130, 128, 129, 131, 132, 134, 134, 136, 135, 136, 134, 135, 134, 134, 136, 136, 140, 139, 140, 140, 141, 141, 140, 139, 137, 138, 138, 138, 139, 139, 141, 141, 140, 139, 138, 136, 136, 134, 134, 134, 135, 136, 136, 136, 136, 135, 132, 133, 133, 130, 132, 132, 132, 133, 132, 133, 131, 132, 133, 133, 133, 132, 133, 134, 134, 134, 135, 135, 135, 134, 132, 132, 132, 131, 132, 133, 134, 136, 137, 135, 135, 134, 133, 132, 133, 132, 134, 133, 135, 133, 137, 135, 136, 135, 135, 134, 134, 135, 137, 138, 140, 141, 142, 141, 144, 143, 143, 144, 144, 145, 147, 150, 152, 154, 155, 153, 151, 149, 146, 145, 143, 143, 146, 149, 152, 154, 155, 153, 150, 147, 142, 139, 136, 134, 135, 135, 136, 134, 135, 132, 132, 129, 129, 127, 128, 128, 128, 127, 129, 132, 132, 132, 132, 130, 129, 127, 128, 126, 125, 126, 126, 127, 128, 130, 130, 129, 130, 130, 128, 125, 125, 125, 127, 129, 134, 141, 152, 165, 176, 191, 200, 203, 201, 199, 200, 205, 217, 231, 246, 252, 247, 228, 193, 151, 109, 76, 54, 43, 35, 33, 28, 25, 22, 20, 19, 19, 19, 21, 22, 24, 26, 30, 36, 45, 56, 71, 85, 97, 107, 115, 120, 121, 122, 122, 123, 123, 124, 124, 124, 124, 126, 125, 125, 125, 125, 123, 124, 125, 123, 121, 121, 121, 121, 121, 119, 119, 119, 118, 119, 116, 115, 114, 112, 112, 110, 110, 109, 110, 110, 109, 106, 106, 104, 101, 100, 101, 100, 101, 102, 102, 104, 102, 102, 102, 102, 101, 100, 98, 101, 103, 104, 106, 106, 109, 110, 112, 112, 113, 113, 115, 117, 119, 121, 124, 126, 126, 126, 127, 129, 129, 132, 132, 132, 133, 133, 134, 135, 136, 136, 136, 136, 135, 136, 134, 134, 136, 135, 136, 136, 136, 138, 137, 134, 137, 136, 135, 134, 133, 133, 135, 135, 137, 137, 137, 136, 135, 133, 134, 133, 133, 133, 133, 135, 134, 133, 135, 132, 131, 132, 133, 133, 134, 135, 135, 136, 136, 134, 134, 134, 134, 134, 135, 134, 137, 136, 137, 138, 136, 137, 136, 136, 135, 135, 136, 136, 138, 138, 139, 140, 140, 139, 139, 139, 138, 137, 136, 139, 140, 140, 141, 142, 142, 141, 141, 141, 141, 143, 144, 144, 146, 148, 150, 151, 152, 152, 151, 150, 151, 152, 152, 154, 157, 157, 156, 156, 153, 151, 149, 148, 145, 146, 147, 148, 149, 150, 152, 150, 149, 146, 142, 138, 135, 134, 132, 131, 130, 130, 131, 131, 131, 128, 129, 128, 126, 124, 123, 124, 125, 125, 127, 128, 127, 127, 126, 126, 126, 125, 125, 127, 127, 127, 130, 131, 131, 132, 130, 128, 124, 125, 123, 124, 130, 141, 152, 168, 183, 195, 201, 202, 201, 201, 204, 217, 231, 246, 253, 246, 223, 187, 145, 106, 78, 58, 47, 42, 41, 39, 37, 36, 34, 33, 32, 30, 30, 31, 32, 35, 39, 47, 57, 71, 84, 97, 106, 114, 118, 117, 119, 118, 118, 121, 123, 123, 125, 126, 126, 126, 124, 124, 121, 123, 123, 123, 124, 125, 124, 124, 122, 122, 120, 119, 119, 118, 117, 117, 116, 117, 117, 115, 114, 113, 112, 111, 110, 108, 107, 107, 109, 108, 108, 108, 106, 106, 104, 102, 102, 100, 101, 102, 102, 103, 104, 104, 104, 103, 103, 103, 105, 106, 106, 109, 110, 112, 114, 117, 118, 120, 123, 123, 123, 125, 127, 128, 130, 132, 132, 135, 133, 133, 135, 136, 136, 138, 137, 139, 141, 141, 141, 141, 141, 142, 141, 141, 142, 142, 142, 143, 144, 144, 144, 143, 142, 142, 142, 141, 141, 142, 142, 144, 144, 144, 144, 142, 141, 141, 138, 138, 139, 140, 140, 140, 140, 139, 140, 137, 138, 134, 134, 132, 131, 132, 131, 132, 133, 134, 135, 135, 133, 132, 132, 131, 131, 132, 132, 132, 131, 132, 132, 133, 133, 132, 131, 131, 130, 130, 131, 131, 131, 132, 132, 132, 131, 130, 131, 129, 129, 129, 130, 130, 131, 133, 135, 137, 137, 137, 137, 136, 138, 140, 139, 142, 143, 146, 146, 147, 149, 150, 150, 149, 147, 145, 144, 146, 143, 143, 146, 146, 149, 149, 149, 150, 150, 149, 146, 146, 143, 141, 140, 138, 134, 132, 132, 130, 127, 128, 128, 130, 131, 131, 132, 130, 128, 128, 130, 128, 128, 127, 127, 129, 127, 130, 130, 129, 129, 129, 128, 125, 126, 126, 127, 128, 129, 130, 131, 130, 129, 126, 126, 127, 127, 133, 142, 155, 168, 185, 195, 200, 202, 198, 196, 199, 207, 222, 237, 249, 252, 240, 211, 173, 132, 96, 70, 53, 44, 39, 33, 28, 26, 25, 23, 24, 23, 23, 24, 24, 26, 31, 40, 52, 67, 82, 95, 105, 113, 117, 118, 118, 117, 118, 119, 122, 122, 124, 124, 123, 122, 120, 119, 121, 120, 120, 119, 122, 122, 124, 122, 121, 117, 115, 116, 114, 113, 113, 114, 114, 113, 112, 109, 111, 109, 108, 107, 105, 104, 102, 103, 102, 102, 103, 102, 101, 101, 99, 100, 97, 97, 97, 98, 99, 100, 101, 104, 105, 105, 105, 107, 107, 107, 108, 110, 111, 114, 116, 119, 121, 123, 122, 123, 123, 125, 125, 127, 129, 129, 130, 130, 129, 129, 130, 130, 128, 130, 131, 131, 132, 132, 134, 133, 134, 134, 134, 133, 132, 130, 130, 131, 132, 133, 132, 132, 133, 132, 132, 130, 131, 129, 128, 129, 130, 130, 132, 131, 131, 131, 129, 129, 128, 127, 127, 126, 128, 130, 129, 130, 130, 130, 129, 129, 128, 131, 129, 129, 130, 130, 129, 131, 129, 129, 131, 130, 130, 130, 130, 131, 133, 132, 134, 134, 133, 132, 131, 130, 130, 130, 131, 131, 131, 132, 135, 133, 134, 135, 134, 134, 134, 134, 133, 135, 136, 139, 140, 141, 141, 142, 141, 141, 141, 142, 144, 146, 149, 149, 150, 147, 146, 145, 142, 141, 141, 142, 143, 146, 148, 149, 149, 149, 146, 143, 140, 138, 135, 134, 134, 134, 132, 132, 132, 132, 131, 130, 129, 128, 127, 127, 127, 128, 129, 130, 130, 130, 130, 128, 126, 127, 126, 126, 126, 128, 128, 128, 129, 130, 130, 128, 127, 126, 125, 124, 124, 123, 124, 127, 132, 141, 153, 167, 178, 189, 193, 193, 191, 192, 195, 209, 223, 237, 244, 235, 211, 175, 135, 104, 80, 68, 62, 59, 54, 51, 45, 41, 39, 37, 36, 35, 35, 35, 37, 41, 48, 57, 70, 81, 94, 106, 112, 116, 119, 118, 118, 119, 122, 124, 126, 125, 124, 124, 125, 126, 127, 126, 124, 124, 124, 125, 123, 123, 124, 122, 123, 122, 122, 122, 121, 121, 122, 121, 118, 115, 113, 111, 113, 113, 113, 113, 113, 112, 110, 110, 109, 106, 106, 104, 104, 102, 103, 102, 102, 102, 103, 104, 104, 104, 104, 104, 103, 103, 104, 105, 108, 109, 111, 114, 115, 116, 116, 116, 119, 120, 121, 123, 126, 127, 130, 131, 132, 131, 132, 133, 132, 132, 131, 132, 134, 136, 135, 138, 137, 136, 135, 133, 134, 134, 136, 135, 137, 137, 138, 138, 138, 137, 136, 134, 133, 134, 133, 134, 135, 135, 135, 135, 135, 134, 132, 132, 130, 129, 130, 129, 130, 130, 130, 132, 134, 137, 136, 134, 132, 127, 124, 127, 131, 132, 135, 133, 131, 127, 125, 125, 125, 124, 126, 125, 127, 128, 130, 130, 129, 130, 128, 126, 129, 128, 128, 129, 130, 132, 133, 133, 133, 132, 132, 132, 133, 132, 135, 135, 138, 141, 141, 143, 143, 144, 143, 143, 142, 141, 140, 141, 142, 143, 144, 141, 141, 141, 142, 144, 146, 145, 145, 143, 143, 139, 139, 135, 129, 127, 126, 126, 124, 125, 125, 125, 125, 124, 121, 123, 123, 123, 121, 120, 120, 121, 122, 121, 123, 122, 123, 122, 123, 121, 120, 119, 118, 116, 115, 116, 117, 118, 119, 119, 120, 118, 117, 115, 113, 110, 108, 108, 110, 113, 121, 130, 142, 151, 156, 158, 158, 159, 166, 179, 197, 216, 232, 236, 230, 212, 185, 152, 119, 93, 74, 63, 56, 53, 50, 45, 38, 34, 31, 29, 28, 27, 30, 31, 35, 39, 47, 56, 69, 81, 91, 99, 106, 107, 109, 107, 108, 109, 110, 111, 112, 112, 112, 113, 111, 111, 112, 113, 114, 113, 112, 114, 112, 112, 110, 108, 107, 105, 106, 105, 106, 106, 106, 105, 102, 102, 102, 103, 102, 98, 97, 94, 93, 95, 94, 96, 96, 96, 96, 95, 93, 91, 90, 91, 92, 91, 91, 93, 94, 94, 95, 93, 93, 91, 92, 94, 95, 97, 99, 102, 102, 103, 104, 104, 106, 106, 106, 109, 114, 114, 117, 120, 121, 123, 121, 119, 117, 115, 117, 118, 118, 119, 121, 123, 123, 123, 123, 121, 120, 120, 118, 120, 121, 121, 122, 123, 124, 125, 123, 120, 117, 115, 113, 113, 116, 120, 122, 122, 120, 116, 114, 114, 113, 116, 118, 119, 119, 119, 118, 115, 115, 113, 112, 113, 114, 115, 117, 117, 117, 117, 115, 115, 115, 114, 112, 112, 113, 114, 113, 115, 115, 114, 114, 114, 114, 110, 108, 107, 105, 105, 107, 112, 115, 117, 116, 114, 111, 108, 109, 108, 110, 109, 108, 107, 107, 110, 111, 112, 113, 113, 111, 109, 109, 107, 106, 107, 109, 110, 110, 110, 110, 110, 112, 112, 114, 113, 113, 113, 113, 114, 114, 118, 117, 118, 121, 122, 123, 123, 124, 124, 124, 123, 122, 120, 118, 118, 117, 118, 120, 123, 125, 125, 125, 122, 117, 114, 111, 109, 109, 107, 105, 104, 104, 102, 101, 101, 100, 101, 101, 100, 102, 103, 102, 99, 98, 96, 96, 97, 101, 102, 104, 100, 100, 98, 98, 97, 97, 98, 100, 102, 105, 105, 102, 99, 96, 92, 88, 88, 90, 97, 107, 123, 137, 149, 155, 161, 160, 158, 159, 162, 173, 188, 204, 218, 219, 210, 181, 141, 102, 66, 39, 22, 9, 4, 1, 2, 2, 5, 4, 5, 4, 3, 0, 0, 2, 7, 16, 29, 42, 54, 65, 71, 79, 82, 83, 83, 84, 83, 86, 89, 92, 94, 94, 94, 92, 90, 91, 88, 87, 83, 85, 84, 88, 89, 90, 90, 87, 85, 85, 83, 82, 83, 83, 85, 83, 80, 79, 78, 77, 76, 75, 74, 72, 70, 70, 68, 70, 72, 70, 72, 72, 72, 69, 68, 67, 68, 69, 70, 72, 73, 72, 71, 72, 71, 71, 70, 70, 71, 74, 79, 84, 87, 89, 89, 88, 85, 82, 83, 86, 89, 95, 98, 100, 103, 103, 103, 104, 104, 104, 103, 102, 100, 99, 99, 100, 101, 103, 102, 102, 103, 102, 102, 102, 100, 101, 103, 104, 105, 104, 106, 105, 103, 104, 102, 100, 99, 103, 104, 102, 103, 104, 103, 100, 97, 95, 96, 96, 97, 100, 101, 103, 102, 101, 98, 97, 96, 97, 97, 97, 100, 100, 102, 100, 101, 102, 104, 105, 105, 102, 100, 97, 95, 95, 97, 98, 100, 103, 101, 102, 104, 103, 104, 102, 101, 100, 101, 101, 101, 102, 102, 102, 103, 103, 104, 103, 102, 102, 102, 101, 103, 103, 105, 105, 105, 104, 104, 104, 103, 104, 106, 107, 109, 107, 106, 104, 103, 102, 104, 106, 108, 110, 111, 112, 114, 114, 114, 115, 116 }


no. 3600 point
