{ 175, 175, 175, 175, 175, 175, 175, 175, 175, 175, 176, 178, 180, 179, 177, 173, 167, 163, 166, 172, 177, 173, 164, 163, 169, 179, 181, 177, 173, 171, 171, 170, 168, 167, 168, 171, 171, 168, 163, 160, 158, 159, 156, 154, 151, 148, 145, 145, 146, 146, 146, 144, 144, 144, 143, 142, 140, 141, 141, 140, 139, 138, 139, 141, 140, 137, 136, 136, 139, 140, 138, 134, 134, 136, 140, 141, 140, 138, 138, 138, 141, 141, 139, 138, 140, 139, 140, 138, 137, 139, 139, 138, 136, 133, 133, 139, 149, 160, 168, 174, 177, 178, 181, 190, 200, 211, 217, 220, 218, 215, 212, 211, 209, 206, 202, 196, 190, 184, 179, 175, 167, 155, 143, 129, 117, 109, 103, 101, 96, 92, 88, 89, 91, 92, 92, 92, 94, 96, 98, 99, 100, 100, 100, 102, 106, 109, 110, 109, 109, 111, 112, 112, 112, 111, 110, 111, 111, 109, 109, 107, 107, 108, 109, 109, 108, 107, 105, 105, 106, 108, 108, 107, 106, 106, 107, 107, 106, 106, 106, 108, 109, 108, 109, 109, 110, 110, 110, 112, 113, 114, 113, 116, 116, 117, 118, 119, 119, 121, 123, 123, 121, 120, 123, 127, 131, 132, 130, 129, 129, 133, 136, 136, 135, 135, 133, 134, 137, 138, 139, 139, 138, 139, 142, 141, 140, 139, 139, 139, 140, 140, 139, 140, 141, 143, 145, 145, 144, 141, 139, 138, 141, 143, 142, 139, 136, 138, 139, 139, 136, 134, 133, 137, 141, 143, 140, 138, 137, 138, 140, 139, 137, 135, 136, 138, 139, 138, 136, 133, 131, 130, 128, 126, 122, 120, 117, 115, 114, 113, 114, 114, 114, 115, 116, 115, 114, 112, 111, 110, 112, 112, 111, 109, 109, 111, 112, 113, 112, 112, 113, 114, 114, 112, 110, 110, 110, 113, 115, 111, 109, 107, 109, 113, 115, 115, 113, 111, 111, 112, 114, 112, 109, 109, 108, 109, 108, 108, 109, 116, 126, 137, 145, 149, 152, 154, 160, 171, 183, 189, 194, 197, 197, 196, 197, 194, 192, 186, 179, 176, 174, 168, 159, 151, 140, 127, 116, 102, 91, 83, 77, 73, 69, 67, 67, 67, 65, 67, 70, 73, 74, 75, 75, 77, 81, 82, 83, 85, 87, 87, 90, 89, 89, 88, 88, 88, 89, 88, 87, 87, 86, 86, 87, 86, 85, 84, 84, 86, 87, 86, 84, 83, 82, 84, 86, 85, 84, 84, 84, 85, 88, 87, 87, 86, 86, 88, 90, 91, 92, 91, 92, 92, 95, 97, 97, 97, 97, 99, 102, 104, 105, 105, 105, 107, 111, 112, 112, 112, 113, 116, 118, 118, 119, 119, 119, 120, 121, 121, 121, 121, 122, 123, 126, 126, 126, 124, 123, 124, 126, 127, 128, 129, 130, 130, 128, 127, 126, 124, 122, 121, 122, 122, 122, 122, 122, 124, 127, 127, 128, 128, 128, 127, 124, 121, 120, 118, 118, 119, 121, 119, 120, 119, 119, 119, 120, 117, 112, 109, 104, 103, 101, 99, 97, 96, 96, 97, 98, 96, 97, 96, 96, 96, 96, 94, 92, 91, 91, 93, 95, 95, 94, 94, 94, 99, 101, 101, 99, 96, 95, 95, 95, 95, 97, 97, 97, 96, 97, 99, 102, 104, 104, 100, 99, 96, 92, 91, 90, 93, 98, 96, 92, 86, 84, 84, 86, 91, 100, 113, 124, 134, 143, 148, 152, 157, 165, 177, 188, 198, 207, 213, 216, 216, 216, 213, 211, 205, 196, 188, 180, 173, 166, 161, 152, 139, 121, 100, 82, 67, 55, 47, 43, 39, 37, 38, 37, 40, 41, 43, 45, 44, 42, 41, 42, 45, 48, 52, 57, 60, 61, 60, 60, 58, 59, 59, 60, 60, 62, 65, 66, 67, 64, 59, 57, 55, 52, 52, 51, 50, 50, 49, 50, 52, 54, 54, 55, 54, 54, 55, 55, 57, 57, 57, 57, 58, 60, 58, 57, 56, 58, 63, 66, 70, 69, 64, 62, 62, 65, 70, 74, 74, 72, 71, 70, 70, 71, 74, 76, 78, 80, 82, 84, 86, 86, 87, 89, 89, 90, 89, 94, 98, 101, 101, 98, 97, 99, 102, 103, 102, 102, 101, 100, 101, 103, 106, 111, 112, 111, 108, 103, 100, 101, 101, 103, 107, 108, 106, 100, 96, 97, 102, 104, 103, 98, 94, 92, 94, 97, 98, 100, 100, 96, 95, 95, 97, 98, 97, 95, 96, 97, 96, 94, 91, 87, 84, 81, 77, 76, 76, 77, 78, 76, 72, 69, 69, 72, 75, 76, 73, 71, 73, 76, 77, 76, 74, 71, 72, 72, 73, 78, 80, 81, 78, 73, 71, 71, 70, 69, 66, 66, 69, 73, 74, 72, 70, 68, 68, 71, 73, 72, 72, 68, 67, 69, 73, 75, 74, 73, 72, 71, 68, 65, 61, 65, 75, 92, 110, 122, 128, 134, 137, 139, 143, 149, 155, 163, 172, 178, 178, 176, 171, 167, 165, 162, 156, 148, 140, 133, 128, 122, 113, 103, 91, 74, 58, 45, 34, 23, 12, 5, 2, 0, 0, 1, 3, 7, 8, 11, 11, 13, 15, 17, 20, 25, 28, 28, 28, 31, 34, 37, 39, 42, 42, 43, 45, 48, 47, 46, 46, 46, 47, 48, 48, 46, 46, 47, 48, 48, 48, 48, 48, 48, 48, 48, 47, 47, 47, 48, 49, 50, 49, 49, 49, 49, 51, 52, 51, 51, 51, 51, 53, 56, 56, 55, 56, 55, 59, 61, 62, 61, 62, 62, 65, 68, 67, 69, 69, 71, 72, 74, 75, 76, 76, 77, 79, 82, 82, 84, 84, 85, 86, 88, 89, 90, 90, 90, 92, 94, 94, 94, 93, 94, 95, 96, 98, 97, 97, 98, 100, 101, 100, 101, 100, 101, 102, 102, 102, 103, 100, 99, 98, 97, 98, 98, 99, 100, 101, 103, 103, 103, 101, 101, 102, 104, 102, 100, 99, 99, 99, 101, 102, 101, 100, 99, 98, 96, 93, 88, 84, 81, 79, 79, 76, 74, 72, 71, 71, 70, 71, 70, 69, 69, 71, 72, 71, 71, 71, 71, 71, 72, 73, 72, 73, 73, 75, 74, 74, 74, 75, 75, 76, 76, 76, 75, 76, 75, 78, 78, 76, 76, 77, 78, 79, 78, 77, 78, 78, 77, 76, 76, 75, 73, 75, 80, 90, 100, 109, 118, 123, 125, 128, 132, 142, 150, 156, 165, 171, 172, 170, 170, 169, 169, 167, 162, 156, 149, 144, 141, 136, 130, 119, 108, 95, 83, 72, 57, 46, 39, 35, 35, 34, 34, 33, 34, 34, 34, 36, 38, 41, 44, 45, 48, 50, 53, 54, 55, 58, 63, 65, 66, 66, 67, 67, 68, 69, 71, 70, 67, 67, 68, 70, 69, 69, 69, 69, 71, 72, 69, 69, 66, 69, 71, 71, 72, 69, 70, 69, 70, 72, 72, 71, 71, 70, 72, 74, 74, 76, 73, 74, 76, 77, 76, 78, 79, 81, 82, 85, 85, 85, 84, 86, 88, 90, 90, 90, 90, 91, 93, 96, 98, 97, 99, 99, 100, 104, 105, 104, 104, 105, 107, 109, 111, 111, 111, 111, 113, 116, 116, 115, 114, 114, 115, 117, 117, 117, 118, 119, 120, 119, 120, 119, 120, 123, 122, 123, 120, 119, 117, 117, 119, 121, 121, 120, 119, 120, 122, 122, 122, 120, 120, 120, 120, 121, 118, 119, 119, 116, 119, 121, 122, 121, 119, 116, 114, 113, 109, 107, 103, 100, 98, 97, 96, 96, 94, 94, 95, 94, 93, 92, 90, 90, 91, 91, 92, 92, 90, 88, 89, 89, 89, 90, 89, 89, 89, 91, 91, 92, 90, 89, 90, 91, 92, 90, 88, 89, 91, 93, 93, 92, 91, 91, 92, 94, 94, 93, 91, 93, 93, 91, 89, 86, 87, 90, 98, 109, 119, 129, 137, 140, 143, 150, 159, 168, 176, 183, 189, 195, 195, 193, 192, 190, 189, 187, 180, 172, 163, 157, 152, 143, 132, 117, 102, 88, 76, 65, 57, 50, 45, 42, 42, 42, 42, 42, 41, 44, 48, 52, 54, 56, 57, 59, 62, 64, 68, 68, 67, 70, 71, 75, 76, 77, 76, 76, 75, 77, 76, 75, 75, 76, 76, 77, 77, 76, 75, 76, 77, 77, 77, 76, 75, 74, 76, 78, 78, 77, 77, 76, 78, 78, 79, 80, 79, 80, 81, 83, 83, 82, 83, 86, 89, 89, 90, 89, 89, 91, 94, 96, 97, 97, 97, 98, 98, 100, 103, 104, 103, 106, 108, 109, 110, 112, 112, 113, 114, 116, 116, 115, 118, 117, 118, 120, 121, 120, 119, 122, 121, 124, 124, 125, 124, 124, 127, 126, 127, 126, 124, 125, 127, 128, 126, 125, 122, 120, 121, 125, 126, 126, 125, 124, 127, 127, 126, 127, 126, 125, 126, 125, 123, 122, 119, 121, 122, 122, 121, 121, 120, 117, 114, 113, 109, 104, 99, 99, 98, 98, 97, 96, 96, 96, 96, 97, 97, 96, 95, 95, 95, 97, 98, 97, 97, 97, 98, 99, 98, 99, 97, 96, 98, 99, 98, 97, 97, 96, 97, 100, 98, 98, 98, 98, 98, 100, 100, 100, 99, 100, 101, 103, 102, 101, 99, 100, 101, 102, 101, 100, 99, 101, 107, 117, 129, 142, 157, 169, 172, 171, 172, 175, 178, 182, 189, 198, 203, 205, 205, 204, 205, 205, 201, 192, 183, 174, 166, 161, 152, 139, 124, 109, 97, 87, 76, 66, 56, 52, 50, 49, 49, 49, 50, 50, 52, 54, 55, 59, 61, 65, 69, 72, 74, 75, 76, 80, 82, 86, 88, 89, 89, 90, 92, 92, 93, 92, 89, 90, 92, 93, 93, 92, 90, 88, 89, 90, 90, 90, 88, 86, 87, 90, 90, 89, 88, 87, 90, 91, 90, 88, 88, 89, 90, 90, 91, 92, 92, 92, 94, 95, 96, 96, 96, 97, 97, 98, 99, 99, 100, 101, 104, 106, 107, 108, 107, 110, 110, 113, 114, 116, 114, 117, 119, 120, 120, 120, 121, 122, 123, 125, 125, 126, 125, 127, 129, 131, 131, 131, 131, 133, 134, 136, 136, 135, 134, 136, 137, 138, 138, 138, 136, 136, 137, 138, 137, 136, 135, 134, 134, 133, 134, 134, 133, 133, 135, 137, 137, 137, 135, 135, 135, 137, 136, 133, 131, 131, 131, 131, 131, 131, 132, 131, 130, 128, 126, 123, 120, 117, 115, 112, 112, 110, 108, 107, 108, 109, 109, 109, 109, 108, 107, 108, 107, 105, 106, 107, 109, 109, 109, 108, 107, 106, 105, 107, 107, 107, 106, 107, 108, 109, 108, 109, 108, 107, 106, 107, 109, 110, 110, 110, 111, 110, 110, 110, 109, 108, 111, 111, 112, 111, 110, 108, 110, 110, 111, 115, 122, 133, 147, 161, 171, 181, 185, 188, 190, 195, 201, 209, 214, 223, 229, 230, 229, 226, 221, 216, 210, 203, 192, 181, 173, 164, 154, 143, 131, 119, 104, 91, 80, 71, 62, 51, 44, 41, 41, 43, 45, 45, 45, 46, 49, 53, 56, 56, 59, 63, 67, 70, 73, 75, 76, 79, 82, 84, 86, 88, 87, 86, 87, 90, 91, 89, 88, 89, 90, 91, 91, 89, 89, 90, 90, 90, 89, 90, 89, 89, 89, 89, 89, 89, 88, 89, 90, 91, 91, 91, 90, 88, 89, 92, 92, 92, 94, 94, 96, 97, 98, 99, 99, 100, 101, 104, 105, 105, 105, 109, 112, 114, 115, 116, 115, 115, 118, 119, 121, 122, 122, 124, 126, 128, 128, 128, 128, 130, 132, 132, 133, 134, 133, 135, 137, 137, 136, 136, 136, 137, 139, 141, 142, 141, 140, 140, 139, 141, 140, 139, 135, 135, 136, 137, 137, 137, 137, 139, 139, 140, 138, 137, 136, 136, 135, 135, 135, 133, 131, 132, 133, 135, 132, 128, 125, 123, 123, 121, 118, 114, 112, 111, 111, 111, 112, 111, 110, 109, 111, 109, 109, 110, 107, 109, 110, 111, 109, 108, 108, 109, 108, 108, 107, 106, 104, 104, 106, 106, 107, 108, 108, 108, 110, 109, 108, 109, 108, 108, 111, 112, 113, 115, 118, 122, 123, 121, 119, 114, 109, 106, 107, 113, 124, 136, 148, 160, 169, 175, 176, 182, 186, 190, 193, 198, 200, 201, 197, 194, 193, 191, 187, 179, 173, 166, 162, 156, 148, 139, 126, 113, 102, 93, 83, 71, 62, 59, 61, 63, 63, 59, 57, 58, 62, 69, 74, 76, 74, 73, 71, 71, 74, 79, 86, 92, 94, 93, 91, 89, 89, 91, 94, 96, 96, 96, 96, 96, 97, 98, 98, 96, 95, 94, 94, 93, 96, 96, 95, 94, 95, 98, 98, 98, 98, 98, 98, 101, 101, 100, 101, 103, 104, 105, 105, 103, 103, 104, 106, 106, 107, 108, 107, 109, 110, 114, 114, 114, 116, 118, 119, 121, 122, 123, 123, 124, 126, 127, 129, 129, 128, 130, 131, 133, 133, 133, 132, 132, 135, 136, 136, 138, 137, 139, 140, 142, 141, 141, 140, 142, 144, 145, 145, 143, 142, 142, 142, 144, 142, 141, 139, 141, 143, 142, 142, 144, 143, 143, 144, 143, 142, 140, 137, 137, 137, 138, 139, 138, 139, 141, 141, 140, 135, 130, 128, 127, 127, 124, 122, 119, 117, 116, 114, 116, 116, 114, 113, 112, 114, 115, 116, 114, 113, 112, 113, 113, 115, 114, 114, 113, 115, 116, 115, 115, 114, 114, 116, 117, 117, 116, 114, 116, 117, 116, 117, 114, 113, 114, 117, 117, 118, 117, 117, 116, 116, 115, 114, 113, 116, 125, 139, 150, 157, 160, 161, 167, 176, 187, 196, 201, 200, 201, 200, 200, 198, 193, 185, 178, 173, 169, 162, 153, 140, 128, 117, 104, 91, 80, 72, 69, 66, 66, 66, 68, 67, 66, 68, 73, 78, 80, 81, 82, 86, 90, 93, 93, 95, 97, 99, 99, 100, 100, 100, 100, 102, 102, 101, 99, 98, 100, 100, 101, 101, 100, 98, 100, 102, 102, 101, 100, 99, 100, 101, 102, 102, 101, 100, 101, 102, 104, 105, 103, 104, 106, 107, 108, 109, 108, 109, 110, 111, 113, 114, 116, 116, 118, 119, 118, 120, 123, 124, 124, 127, 128, 130, 129, 130, 132, 133, 134, 135, 134, 135, 137, 137, 140, 139, 140, 142, 141, 143, 144, 146, 145, 146, 147, 149, 149, 149, 149, 147, 147, 146, 146, 145, 146, 145, 148, 149, 150, 150, 149, 146, 147, 148, 148, 147, 146, 144, 143, 143, 143, 144, 143, 142, 141, 138, 136, 133, 131, 128, 126, 123, 122, 120, 117, 117, 118, 118, 118, 118, 117, 116, 116, 117, 117, 117, 117, 115, 115, 117, 119, 118, 117, 115, 116, 119, 118, 119, 118, 118, 117, 117, 118, 118, 117, 115, 117, 119, 120, 120, 118, 117, 118, 121, 121, 122, 120, 118, 117, 117, 116, 116, 115, 120, 132, 144, 156, 163, 165, 166, 173, 184, 197, 206, 213, 216, 219, 219, 218, 215, 210, 200, 193, 187, 181, 174, 163, 148, 132, 118, 105, 93, 81, 74, 71, 70, 71, 70, 70, 69, 70, 71, 74, 78, 79, 82, 85, 87, 91, 93, 93, 94, 97, 100, 102, 103, 102, 102, 104, 104, 103, 103, 104, 103, 102, 103, 104, 105, 104, 102, 103, 103, 104, 105, 103, 102, 102, 104, 105, 106, 106, 104, 105, 108, 108, 109, 108, 108, 108, 111, 111, 113, 112, 112, 114, 116, 116, 117, 117, 117, 120, 121, 125, 125, 126, 126, 126, 129, 131, 133, 134, 134, 134, 135, 137, 139, 137, 137, 139, 141, 144, 146, 146, 144, 144, 145, 147, 147, 148, 149, 152, 156, 158, 158, 155, 154, 158, 162, 164, 159, 151, 142, 139, 141, 143, 146, 147, 148, 150, 151, 151, 149, 149, 150, 150, 151, 151, 151, 150, 147, 146, 146, 146, 146, 146, 144, 142, 140, 137, 135, 133, 131, 132, 131, 129, 126, 123, 121, 124, 131, 137, 139, 135, 128, 122, 117, 114, 112, 110, 110, 112, 113, 115, 118, 118, 118, 115, 115, 116, 119, 119, 117, 115, 115, 118, 120, 122, 122, 123, 125, 128, 130, 131, 129, 129, 128, 125, 123, 123, 125, 126, 125, 122, 122, 125, 134, 143, 150, 153, 158, 164, 171, 180, 190, 198, 201, 203, 209, 220, 227, 227, 222, 217, 215, 217, 217, 212, 205, 198, 190, 184, 177, 167, 153, 136, 117, 102, 89, 83, 78, 73, 66, 63, 62, 63, 66, 65, 66, 71, 77, 81, 84, 86, 90, 91, 96, 98, 99, 99, 102, 107, 110, 110, 110, 109, 112, 115, 116, 119, 122, 122, 115, 109, 105, 107, 105, 102, 96, 94, 95, 96, 96, 97, 97, 97, 97, 98, 99, 98, 99, 100, 101, 101, 105, 106, 107, 108, 108, 110, 113, 114, 116, 118, 124, 129, 132, 130, 125, 117, 113, 116, 122, 129, 134, 137, 137, 139, 142, 143, 140, 137, 139, 142, 146, 146, 145, 145, 142, 141, 139, 138, 135, 137, 142, 152, 162, 165, 164, 159, 152, 149, 149, 151, 154, 159, 163, 165, 167, 168, 172, 168, 155, 144, 140, 143, 146, 145, 140, 138, 142, 147, 151, 154, 152, 151, 149, 147, 142, 136, 129, 128, 128, 129, 127, 127, 126, 127, 128, 129, 127, 126, 128, 132, 134, 129, 121, 118, 117, 122, 121, 117, 114, 115, 118, 121, 123, 123, 122, 123, 124, 123, 123, 121, 123, 124, 124, 124, 125, 126, 125, 126, 126, 129, 129, 128, 129, 131, 133, 134, 130, 128, 123, 121, 122, 123, 124, 124, 127, 134, 146, 157, 166, 174, 178, 177, 177, 182, 192, 202, 211, 221, 230, 237, 238, 236, 233, 232, 230, 225, 214, 206, 200, 193, 186, 177, 164, 150, 136, 125, 115, 105, 96, 88, 83, 80, 79, 78, 78, 78, 78, 78, 77, 79, 81, 85, 88, 92, 95, 97, 99, 99, 99, 102, 104, 107, 110, 110, 112, 113, 114, 116, 116, 114, 114, 115, 116, 114, 115, 114, 114, 113, 114, 115, 114, 113, 112, 113, 114, 115, 115, 114, 113, 114, 115, 115, 116, 115, 114, 115, 116, 117, 117, 116, 117, 117, 119, 122, 122, 121, 121, 124, 126, 127, 127, 128, 128, 131, 134, 135, 135, 135, 133, 136, 138, 141, 143, 144, 144, 145, 148, 149, 150, 150, 150, 152, 154, 154, 154, 156, 156, 157, 159, 161, 161, 161, 160, 163, 165, 167, 167, 168, 167, 168, 169, 168, 168, 165, 164, 164, 165, 167, 167, 168, 167, 167, 168, 167, 166, 165, 163, 164, 164, 163, 164, 163, 163, 163, 165, 165, 163, 159, 156, 152, 151, 148, 146, 144, 140, 138, 136, 136, 136, 135, 133, 132, 134, 135, 134, 134, 133, 133, 134, 134, 134, 133, 132, 132, 134, 134, 133, 131, 132, 131, 132, 134, 134, 134, 133, 134, 135, 134, 133, 133, 133, 135, 136, 137, 136, 136, 135, 135, 136, 136, 136, 136, 134, 132, 131, 131, 131, 130, 132, 142, 153, 162, 172, 179, 185, 189, 196, 206, 217, 226, 235, 243, 251, 254, 255, 252, 251, 249, 245, 237, 226, 216, 207, 198, 189, 177, 164, 147, 131, 120, 110, 99, 90, 83, 79, 75, 75, 74, 74, 75, 73, 73, 76, 80, 82, 85, 88, 91, 93, 95, 97, 97, 99, 102, 106, 109, 109, 110, 109, 111, 112, 112, 113, 113, 112, 111, 112, 111, 112, 110, 110, 110, 112, 111, 112, 110, 109, 108, 109, 110, 110, 108, 107, 107, 109, 109, 108, 108, 108, 108, 109, 111, 110, 111, 110, 111, 113, 114, 114, 114, 115, 116, 117, 119, 119, 119, 119, 120, 121, 124, 126, 127, 126, 127, 129, 132, 133, 134, 133, 135, 136, 140, 141, 143, 142, 142, 144, 145, 145, 146, 146, 147, 149, 151, 152, 153, 152, 153, 153, 156, 159, 159, 159, 157, 158, 160, 160, 159, 159, 159, 160, 159, 157, 155, 154, 155, 157, 160, 160, 159, 157, 156, 157, 157, 157, 154, 154, 154, 154, 154, 154, 151, 151, 152, 153, 153, 151, 148, 144, 141, 139, 137, 135, 131, 128, 126, 125, 124, 123, 122, 119, 121, 122, 124, 123, 123, 122, 121, 123, 124, 124, 122, 121, 122, 123, 124, 123, 122, 121, 122, 123, 124, 123, 123, 120, 123, 124, 126, 125, 124, 123, 123, 124, 125, 127, 126, 125, 125, 127, 126, 127, 125, 122, 123, 127, 135, 146, 159, 169, 177, 186, 192, 197, 200, 207, 214, 223, 231, 238, 239, 237, 233, 230, 227, 222, 213, 202, 194, 187, 178, 168, 158, 142, 127, 113, 102, 92, 81, 71, 65, 63, 61, 62, 60, 60, 63, 64, 66, 68, 72, 74, 76, 80, 83, 86, 85, 87, 89, 94, 97, 97, 98, 97, 100, 103, 105, 105, 103, 102, 102, 102, 103, 103, 102, 101, 101, 101, 104, 102, 101, 100, 101, 102, 104, 103, 102, 102, 103, 104, 105, 104, 104, 103, 104, 105, 107, 107, 108, 108, 110, 112, 114, 114, 113, 113, 116, 117, 118, 119, 118, 120, 121, 122, 124, 126, 125, 125, 126, 129, 131, 132, 134, 135, 136, 137, 140, 140, 141, 140, 140, 141, 144, 143, 144, 144, 145, 146, 147, 149, 149, 148, 151, 152, 153, 152, 153, 152, 153, 155, 156, 154, 152, 150, 149, 152, 153, 153, 152, 152, 150, 150, 151, 151, 150, 149, 149, 150, 151, 150, 150, 148, 147, 148, 149, 149, 148, 146, 144, 144, 140, 139, 135, 131, 128, 127, 125, 124, 121, 122, 122, 123, 122, 122, 121, 120, 121, 121, 123, 122, 120, 121, 121, 123, 122, 120, 120, 118, 120, 121, 122, 124, 122, 121, 121, 121, 122, 122, 122, 121, 122, 121, 123, 123, 123, 121, 121, 122, 123, 123, 124, 125, 125, 126, 124, 122, 120, 119, 121, 126, 137, 149, 160, 166, 172, 174, 177, 181, 187, 193, 200, 208, 216, 217, 216, 212, 212, 211, 210, 208, 201, 193, 187, 181, 175, 168, 157, 145, 133, 122, 111 }



no. 3600 point