{ 32, 28, 29, 32, 32, 30, 28, 26, 24, 28, 28, 28, 26, 24, 26, 27, 28, 28, 25, 23, 25, 26, 28, 26, 24, 24, 26, 29, 28, 27, 26, 24, 25, 26, 28, 24, 23, 23, 22, 22, 23, 22, 19, 18, 17, 19, 20, 19, 18, 18, 18, 20, 20, 22, 22, 24, 22, 26, 29, 31, 30, 31, 32, 33, 37, 40, 37, 35, 37, 41, 42, 43, 40, 40, 41, 43, 47, 47, 44, 42, 43, 45, 44, 43, 42, 43, 43, 45, 43, 45, 42, 41, 42, 43, 43, 43, 41, 40, 39, 43, 43, 41, 38, 37, 38, 39, 42, 40, 39, 37, 38, 39, 41, 41, 37, 35, 36, 39, 39, 39, 37, 34, 36, 35, 38, 34, 34, 30, 28, 30, 30, 29, 26, 24, 24, 26, 27, 26, 23, 21, 23, 24, 28, 29, 28, 31, 34, 41, 49, 53, 61, 74, 91, 108, 126, 147, 169, 191, 211, 230, 244, 252, 244, 234, 212, 184, 150, 120, 98, 80, 70, 64, 58, 57, 53, 50, 46, 47, 45, 42, 37, 34, 32, 36, 34, 33, 31, 30, 29, 30, 28, 29, 28, 26, 24, 27, 28, 29, 25, 21, 23, 24, 24, 24, 23, 22, 22, 22, 22, 22, 17, 17, 18, 16, 19, 19, 16, 15, 14, 14, 16, 16, 14, 14, 15, 17, 20, 21, 20, 20, 22, 24, 29, 29, 30, 33, 34, 37, 41, 40, 41, 43, 48, 50, 51, 52, 50, 48, 49, 47, 49, 48, 43, 45, 45, 46, 48, 47, 42, 43, 42, 43, 44, 42, 39, 39, 39, 39, 40, 39, 37, 36, 37, 34, 37, 37, 34, 33, 34, 34, 37, 35, 33, 33, 33, 34, 34, 33, 30, 29, 28, 30, 30, 30, 27, 25, 24, 26, 27, 24, 20, 22, 23, 23, 24, 22, 21, 21, 24, 25, 27, 28, 26, 26, 26, 34, 34, 34, 33, 32, 34, 39, 41, 42, 43, 42, 45, 48, 49, 49, 45, 45, 48, 47, 49, 47, 46, 45, 47, 45, 47, 47, 45, 43, 45, 48, 49, 48, 45, 45, 45, 45, 47, 45, 45, 43, 44, 44, 44, 44, 43, 41, 41, 43, 43, 43, 40, 38, 38, 42, 39, 37, 36, 34, 34, 35, 37, 34, 32, 30, 30, 33, 34, 34, 33, 30, 33, 39, 43, 45, 48, 50, 59, 70, 85, 103, 114, 135, 156, 177, 200, 216, 231, 242, 249, 246, 233, 208, 176, 142, 115, 97, 81, 68, 62, 57, 59, 60, 60, 55, 51, 47, 47, 47, 46, 43, 39, 38, 37, 37, 37, 37, 32, 32, 32, 33, 34, 34, 31, 29, 30, 32, 32, 32, 28, 28, 28, 29, 29, 27, 26, 23, 23, 23, 23, 22, 20, 18, 20, 21, 20, 19, 18, 17, 16, 20, 20, 20, 18, 16, 18, 22, 24, 25, 26, 25, 26, 31, 32, 33, 34, 34, 37, 41, 45, 47, 47, 49, 54, 58, 58, 60, 58, 57, 57, 60, 60, 60, 55, 51, 54, 53, 55, 53, 51, 49, 51, 50, 51, 49, 46, 45, 45, 46, 49, 47, 45, 45, 44, 43, 45, 45, 44, 42, 42, 43, 44, 43, 42, 41, 41, 42, 41, 39, 39, 37, 37, 37, 39, 35, 33, 33, 32, 33, 33, 32, 31, 30, 30, 32, 33, 32, 34, 30, 32, 35, 39, 38, 38, 38, 39, 41, 46, 44, 47, 47, 49, 54, 55, 57, 55, 55, 53, 55, 57, 56, 55, 52, 53, 55, 54, 54, 53, 51, 52, 52, 53, 51, 51, 50, 49, 51, 53, 53, 51, 51, 52, 53, 53, 54, 51, 51, 51, 55, 57, 58, 57, 57, 69, 83, 101, 118, 134, 154, 175, 197, 217, 235, 244, 242, 228, 204, 171, 132, 95, 74, 60, 53, 48, 46, 44, 44, 42, 43, 41, 39, 37, 34, 35, 38, 39, 39, 37, 39, 42, 44, 45, 45, 41, 39, 41, 41, 43, 41, 39, 35, 37, 39, 41, 39, 37, 37, 38, 40, 42, 38, 39, 38, 36, 37, 39, 39, 38, 37, 37, 38, 39, 38, 36, 34, 36, 37, 38, 38, 34, 33, 34, 36, 36, 35, 37, 34, 34, 36, 37, 36, 32, 32, 32, 33, 34, 33, 32, 31, 31, 32, 32, 30, 26, 27, 29, 32, 32, 34, 34, 32, 34, 37, 39, 39, 37, 37, 39, 42, 46, 46, 46, 47, 47, 49, 48, 48, 48, 45, 47, 48, 50, 50, 48, 47, 47, 51, 51, 49, 49, 46, 47, 49, 51, 50, 48, 47, 47, 49, 50, 50, 48, 49, 47, 49, 51, 50, 50, 47, 49, 49, 51, 50, 48, 46, 47, 53, 56, 57, 56, 56, 63, 74, 89, 103, 118, 136, 156, 175, 196, 213, 225, 231, 228, 216, 191, 161, 126, 95, 70, 55, 45, 42, 44, 46, 48, 47, 49, 47, 45, 43, 45, 48, 47, 48, 44, 42, 43, 42, 44, 43, 41, 40, 39, 41, 43, 43, 42, 39, 41, 43, 43, 43, 41, 39, 39, 41, 44, 44, 42, 38, 40, 43, 45, 43, 41, 42, 43, 41, 43, 44, 43, 39, 39, 43, 46, 45, 41, 39, 38, 39, 39, 40, 39, 38, 39, 42, 44, 42, 41, 41, 41, 46, 47, 49, 46, 45, 46, 50, 51, 51, 50, 49, 49, 50, 51, 49, 49, 50, 54, 57, 58, 55, 55, 55, 53, 54, 57, 57, 55, 55, 54, 56, 57, 58, 55, 53, 53, 55, 57, 55, 55, 53, 55, 56, 56, 55, 55, 54, 55, 56, 57, 56, 55, 54, 56, 57, 58, 58, 54, 55, 55, 58, 61, 64, 66, 71, 83, 97, 113, 128, 139, 155, 173, 194, 216, 231, 244, 253, 255, 245, 223, 189, 147, 109, 83, 68, 59, 49, 47, 47, 48, 48, 48, 43, 39, 38, 38, 41, 43, 43, 41, 39, 39, 40, 40, 41, 37, 34, 36, 38, 39, 37, 36, 35, 36, 37, 36, 37, 35, 33, 34, 34, 37, 34, 33, 33, 34, 34, 35, 33, 33, 31, 31, 32, 36, 34, 31, 30, 30, 32, 33, 32, 30, 28, 30, 32, 32, 32, 28, 28, 28, 30, 32, 34, 34, 32, 32, 34, 34, 31, 30, 30, 33, 34, 36, 37, 35, 34, 36, 40, 42, 43, 39, 39, 39, 44, 45, 47, 47, 47, 50, 53, 55, 53, 49, 49, 50, 51, 54, 54, 52, 51, 49, 52, 55, 52, 49, 50, 51, 53, 53, 53, 51, 49, 50, 51, 52, 52, 49, 47, 48, 50, 50, 49, 47, 46, 45, 49, 50, 49, 47, 49, 48, 54, 58, 60, 62, 72, 87, 107, 125, 143, 162, 186, 204, 225, 239, 245, 239, 225, 201, 168, 131, 100, 80, 64, 55, 52, 51, 51, 47, 44, 43, 43, 45, 43, 41, 41, 41, 41, 41, 39, 37, 36, 37, 39, 39, 38, 37, 35, 34, 37, 37, 34, 34, 33, 31, 34, 35, 35, 32, 31, 32, 33, 34, 32, 29, 30, 30, 31, 32, 33, 30, 28, 30, 30, 30, 29, 28, 27, 26, 27, 30, 28, 28, 24, 25, 25, 27, 27, 24, 23, 24, 27, 28, 28, 27, 26, 27, 28, 30, 31, 29, 29, 29, 34, 34, 32, 34, 35, 37, 39, 41, 42, 40, 41, 42, 47, 51, 51, 49, 48, 49, 50, 53, 50, 50, 49, 49, 51, 53, 49, 50, 47, 47, 51, 51, 51, 48, 47, 47, 49, 49, 49, 46, 47, 47, 49, 49, 49, 48, 47, 47, 48, 50, 49, 46, 45, 46, 47, 46, 43, 41, 40, 40, 46, 47, 50, 55, 61, 75, 90, 105, 122, 135, 155, 178, 197, 214, 227, 229, 224, 206, 185, 155, 123, 97, 81, 70, 63, 59, 59, 58, 57, 55, 54, 52, 46, 43, 42, 41, 40, 41, 39, 36, 34, 36, 37, 38, 35, 34, 32, 32, 32, 34, 33, 32, 30, 30, 32, 32, 29, 27, 28, 28, 30, 30, 29, 28, 26, 28, 28, 29, 27, 24, 24, 26, 26, 25, 24, 21, 20, 20, 19, 20, 18, 16, 18, 19, 20, 20, 22, 19, 18, 22, 23, 28, 27, 29, 30, 33, 33, 38, 38, 39, 37, 37, 41, 42, 43, 41, 43, 45, 47, 49, 48, 47, 44, 44, 48, 47, 47, 44, 43, 43, 46, 47, 45, 43, 42, 41, 42, 43, 45, 42, 42, 42, 42, 44, 42, 40, 39, 41, 41, 43, 41, 39, 38, 40, 41, 39, 40, 38, 37, 39, 41, 43, 43, 39, 38, 42, 45, 50, 53, 60, 72, 89, 108, 122, 135, 151, 170, 190, 208, 221, 229, 226, 211, 189, 163, 131, 101, 81, 68, 60, 56, 53, 53, 52, 50, 51, 49, 47, 45, 40, 37, 38, 38, 37, 35, 33, 30, 32, 32, 34, 32, 29, 27, 28, 29, 30, 27, 26, 26, 25, 27, 29, 27, 26, 25, 25, 28, 27, 26, 24, 26, 26, 27, 28, 26, 24, 20, 24, 27, 27, 25, 23, 21, 19, 20, 20, 18, 15, 15, 16, 20, 22, 21, 19, 18, 19, 21, 24, 25, 25, 26, 30, 32, 37, 36, 33, 36, 35, 37, 39, 37, 37, 37, 37, 43, 45, 45, 41, 42, 44, 45, 44, 43, 42, 41, 41, 43, 45, 43, 41, 40, 41, 43, 42, 41, 40, 39, 38, 41, 43, 41, 38, 39, 38, 41, 41, 41, 39, 39, 40, 41, 41, 39, 39, 37, 37, 39, 40, 37, 34, 34, 34, 34, 37, 35, 32, 33, 34, 39, 41, 43, 48, 57, 72, 90, 106, 121, 138, 156, 177, 195, 210, 220, 219, 207, 187, 161, 130, 99, 79, 62, 51, 45, 45, 47, 47, 46, 47, 45, 45, 41, 38, 36, 34, 35, 36, 34, 31, 30, 30, 31, 31, 30, 28, 26, 25, 28, 30, 28, 27, 24, 24, 27, 26, 24, 22, 24, 25, 26, 27, 25, 25, 21, 24, 24, 24, 24, 23, 22, 20, 24, 24, 23, 20, 18, 20, 20, 20, 17, 14, 11, 14, 14, 16, 16, 14, 14, 16, 17, 19, 18, 18, 20, 22, 27, 30, 28, 29, 30, 30, 34, 37, 38, 36, 35, 37, 39, 39, 41, 40, 39, 41, 43, 45, 47, 45, 43, 44, 46, 45, 47, 45, 40, 42, 44, 47, 46, 41, 43, 42, 43, 46, 44, 42, 41, 38, 43, 44, 44, 41, 41, 41, 41, 43, 43, 41, 39, 41, 43, 43, 42, 41, 39, 40, 42, 42, 41, 41, 37, 38, 41, 41, 40, 39, 37, 39, 39, 42, 43, 45, 49, 60, 73, 87, 101, 118, 133, 154, 175, 194, 211, 225, 234, 235, 229, 210, 181, 148, 116, 89, 71, 57, 49, 45, 48, 53, 54, 55, 50, 44, 41, 41, 41, 40, 37, 34, 32, 34, 34, 34, 33, 30, 30, 31, 31, 32, 32, 28, 26, 27, 30, 30, 29, 26, 25, 27, 26, 27, 26, 25, 23, 25, 25, 27, 26, 24, 22, 23, 25, 26, 24, 21, 20, 22, 24, 22, 22, 18, 16, 16, 18, 18, 17, 15, 15, 15, 18, 18, 18, 16, 18, 18, 20, 25, 24, 26, 25, 28, 32, 35, 35, 36, 35, 37, 41, 43, 41, 39, 41, 41, 41, 43, 45, 45, 44, 47, 49, 50, 49, 46, 45, 45, 48, 49, 48, 46, 45, 45, 47, 49, 47, 46, 43, 45, 45, 47, 46, 45, 43, 42, 45, 47, 45, 45, 43, 44, 47, 45, 44, 44, 43, 44, 46, 47, 47, 43, 41, 41, 44, 44, 43, 43, 42, 42, 44, 47, 43, 43, 42, 44, 50, 55, 60, 70, 83, 98, 115, 130, 147, 164, 178, 200, 215, 232, 244, 242, 235, 218, 196, 166, 132, 104, 83, 66, 60, 53, 51, 50, 50, 50, 53, 49, 46, 45, 40, 40, 40, 40, 40, 37, 34, 34, 34, 35, 34, 32, 31, 30, 32, 32, 31, 30, 27, 27, 31, 32, 29, 27, 26, 26, 26, 28, 26, 26, 25, 26, 26, 26, 26, 25, 23, 23, 23, 24, 21, 20, 19, 19, 21, 20, 18, 16, 15, 16, 14, 12, 11, 9, 8, 11, 13, 14, 14, 14, 12, 12, 17, 18, 18, 18, 20, 25, 28, 30, 31, 29, 30, 32, 37, 37, 34, 36, 33, 37, 39, 43, 39, 40, 40, 43, 45, 47, 47, 45, 44, 44, 45, 46, 47, 42, 42, 43, 45, 45, 44, 43, 41, 43, 44, 45, 43, 41, 41, 41, 44, 45, 43, 41, 40, 41, 43, 45, 44, 43, 42, 41, 42, 44, 43, 41, 40, 39, 41, 42, 41, 40, 39, 38, 41, 41, 41, 39, 38, 40, 42, 44, 45, 47, 55, 69, 87, 102, 116, 131, 149, 171, 193, 211, 225, 235, 239, 235, 225, 203, 171, 140, 113, 96, 83, 71, 57, 49, 47, 49, 51, 52, 47, 44, 43, 42, 41, 37, 36, 32, 32, 30, 33, 32, 32, 29, 28, 28, 29, 31, 28, 27, 24, 26, 27, 29, 26, 24, 24, 25, 24, 26, 26, 24, 22, 21, 26, 26, 25, 24, 21, 22, 24, 26, 24, 20, 19, 20, 21, 22, 20, 18, 16, 18, 18, 16, 16, 13, 12, 12, 12, 15, 14, 11, 14, 16, 17, 18, 17, 18, 16, 22, 24, 27, 26, 26, 26, 28, 30, 32, 34, 33, 34, 34, 37, 37, 39, 39, 40, 41, 45, 45, 45, 44, 43, 41, 44, 45, 44, 43, 42, 40, 43, 44, 43, 41, 41, 42, 43, 45, 42, 41, 41, 41, 43, 44, 41, 38, 39, 40, 43, 44, 42, 42, 41, 41, 43, 42, 39, 36, 38, 39, 39, 38, 37, 37, 36, 36, 39, 40, 38, 34, 34, 38, 40, 45, 48, 55, 68, 86, 102, 118, 132, 149, 170, 189, 210, 225, 234, 233, 221, 203, 178, 145, 114, 91, 76, 66, 57, 54, 51, 51, 50, 49, 49, 45, 41, 38, 34, 34, 36, 35, 31, 30, 29, 30, 30, 30, 26, 24, 24, 24, 26, 25, 25, 24, 22, 23, 26, 25, 23, 22, 21, 23, 24, 24, 22, 19, 21, 20, 23, 23, 22, 18, 18, 20, 19, 22, 18, 16, 14, 14, 17, 15, 11, 9, 7, 9, 9, 14, 11, 9, 10, 11, 14, 16, 17, 18, 20, 22, 26, 28, 28, 27, 28, 30, 32, 35, 34, 32, 34, 36, 39, 41, 41, 38, 39, 38, 42, 41, 40, 38, 37, 39, 41, 41, 40, 39, 39, 38, 39, 40, 39, 37, 35, 39, 39, 39, 37, 35, 34, 35, 37, 37, 36, 36, 34, 35, 37, 37, 37, 33, 35, 36, 37, 36, 36, 32, 33, 34, 36, 36, 35, 33, 32, 30, 31, 32, 34, 35, 37, 44, 52, 64, 76, 89, 102, 116, 137, 156, 175, 189, 201, 214, 221, 218, 202, 180, 154, 124, 99, 80, 66, 55, 49, 48, 51, 53, 51, 47, 42, 39, 41, 38, 37, 32, 29, 30, 30, 30, 29, 27, 25, 27, 28, 28, 27, 25, 23, 22, 24, 24, 24, 21, 21, 20, 23, 24, 21, 20, 18, 18, 20, 23, 22, 18, 19, 20, 22, 21, 21, 19, 17, 19, 20, 20, 18, 13, 14, 12, 13, 13, 10, 9, 7, 11, 11, 12, 10, 10, 10, 11, 16, 18, 20, 20, 22, 23, 27, 31, 31, 32, 30, 31, 34, 35, 36, 34, 34, 36, 39, 43, 40, 39, 41, 40, 41, 42, 39, 39, 37, 37, 39, 40, 40, 38, 37, 37, 39, 41, 40, 38, 36, 34, 35, 39, 38, 37, 34, 37, 36, 37, 37, 35, 34, 35, 37, 37, 35, 34, 33, 33, 34, 34, 35, 32, 32, 32, 34, 35, 32, 31, 26, 30, 32, 36, 40, 43, 50, 62, 78, 96, 111, 124, 142, 165, 186, 204, 216, 225, 225, 215, 196, 168, 133, 97, 74, 60, 49, 45, 41, 43, 47, 48, 47, 45, 43, 38, 34, 32, 34, 34, 32, 29, 26, 28, 28, 30, 28, 24, 24, 24, 26, 25, 25, 21, 21, 19, 22, 22, 22, 20, 17, 20, 21, 22, 22, 19, 16, 16, 18, 20, 18, 16, 16, 16, 16, 17, 15, 14, 11, 10, 13, 11, 9, 7, 6, 9, 10, 9, 9, 7, 7, 8, 12, 16, 18, 18, 21, 24, 27, 29, 26, 27, 30, 33, 34, 37, 36, 34, 34, 36, 40, 43, 41, 39, 39, 40, 44, 43, 40, 38, 39, 39, 40, 41, 40, 37, 37, 39, 41, 41, 41, 39, 38, 39, 41, 40, 39, 36, 34, 38, 39, 39, 39, 34, 37, 37, 39, 40, 39, 37, 37, 37, 39, 39, 37, 35, 34, 35, 38, 38, 37, 37, 39, 43, 50, 60, 70, 85, 100, 119, 139, 162, 184, 201, 216, 231, 239, 237, 221, 195, 162, 126, 99, 77, 62, 53, 51, 52, 53, 53, 50, 43, 39, 38, 39, 36, 37, 34, 32, 32, 33, 34, 32, 30, 28, 28, 30, 28, 28, 27, 25, 25, 28, 28, 27, 25, 24, 23, 26, 28, 25, 22, 24, 23, 25, 23, 23, 22, 20, 22, 22, 22, 20, 19, 16, 17, 17, 16, 13, 11, 11, 14, 14, 14, 13, 14, 11, 14, 17, 21, 22, 22, 26, 27, 29, 33, 32, 33, 34, 36, 39, 39, 39, 37, 35, 39, 43, 45, 45, 43, 41, 39, 41, 41, 40, 39, 39, 37, 41, 40, 41, 39, 38, 40, 43, 41, 43, 41, 40, 39, 43, 41, 40, 39, 39, 39, 41, 43, 41, 39, 37, 39, 41, 41, 38, 38, 37, 37, 39, 37, 37, 34, 34, 37, 37, 40, 39, 42, 45, 53, 62, 76, 89, 103, 116, 137, 157, 181, 199, 213, 226, 233, 231, 218, 197, 166, 135, 107, 89, 70, 60, 52, 48, 49, 52, 51, 46, 41, 37, 36, 36, 34, 31, 29, 26, 26, 28, 27, 27, 24, 22, 24, 24, 24, 20, 19, 20, 20, 22, 20, 21, 19, 16, 18, 20, 18, 18, 16, 16, 18, 18, 18, 16, 14, 14, 13, 13, 14, 12, 8, 7, 6, 9, 6, 5, 3, 1, 1, 3, 3, 2, 1, 0, 1, 3, 5, 4, 7, 6, 10, 14, 18, 18, 17, 18, 22, 24, 26, 28, 26, 26, 29, 32, 33, 35, 32, 34, 34, 36, 37, 34, 36, 32, 34, 34, 37, 35, 32, 32, 34, 37, 38, 35, 33, 32, 34, 35, 37, 35, 34, 33, 34, 37, 37, 34, 33, 32, 33, 37, 37, 37, 32, 31, 32, 34, 36, 32, 30, 30, 32, 32, 34, 30, 32, 34, 40, 47, 57, 66, 81, 97, 116, 133, 154, 175, 191, 206, 215, 218, 207, 183, 152, 120, 96, 79, 69, 58, 49, 49, 50, 51, 47, 43, 37, 34, 33, 33, 33, 31, 27, 26, 25, 26, 28, 27, 22, 21, 22, 24, 24, 23, 19, 18, 20, 21, 20, 20, 18, 18, 19, 20, 22, 19, 16, 16, 16, 17, 18, 16, 13, 14, 16, 17, 16, 16, 13, 9, 9, 10, 7, 6, 1, 5, 6, 9, 9, 7, 6, 8, 9, 12, 16, 16, 14, 16, 18, 24, 26, 26, 25, 26, 30, 32, 32, 33, 32, 34, 37, 39, 40, 38, 36, 37, 34, 39, 37, 37, 34, 35, 36, 36, 37, 34, 33, 33, 36, 38, 39, 36, 34, 33, 35, 34, 33, 34, 32, 32, 32, 34, 35, 34, 33, 31, 31, 34, 35, 32, 31, 28, 31, 30, 34, 32, 30, 30, 30, 31, 31, 32, 31, 32, 37, 44, 54, 66, 80, 95, 109, 126, 147, 169, 187, 200, 213, 221, 218, 200, 176, 143, 112, 91, 76, 64, 54, 49, 48, 49, 52, 46, 41, 37, 35, 36, 34, 33, 28, 26, 26, 28, 26, 25, 24, 23, 24, 23, 23, 21, 20, 19, 20, 22, 22, 20, 19, 18, 19, 19, 21, 20, 16, 16, 16, 18, 19, 17, 14, 14, 13, 16, 14, 14, 11, 9, 10, 10, 11, 7, 3, 3, 5, 5, 7, 5, 4, 2, 5, 7, 9, 9, 9, 13, 16, 21, 22, 23, 20, 22, 28, 30, 30, 30, 28, 29, 30, 33, 37, 37, 36, 37, 37, 38, 39, 36, 34, 33, 34, 37, 34, 35, 32, 33, 34, 36, 37, 35, 33, 33, 33, 36, 36, 33, 32, 31, 32, 33, 33, 32, 30, 28, 30, 31, 34, 30, 29, 28, 30, 30, 31, 28, 26, 26, 28, 29, 27, 26, 24, 24, 24, 28, 30, 32, 31, 38, 48, 65, 80, 93, 107, 124, 147, 169, 187, 202, 213, 219, 216, 200, 176, 144, 109, 81, 66, 55, 51, 46, 45, 45, 46, 44, 41, 37, 32, 30, 30, 29, 29, 27, 25, 24, 23, 24, 22, 22, 20, 19, 20, 21, 21, 20, 18, 17, 18, 18, 19, 18, 16, 16, 16, 17, 16, 16, 14, 13, 15, 16, 18, 15, 13, 11, 11, 14, 13, 13, 9, 7, 7, 5, 8, 6, 6, 4, 3, 8, 9, 11, 9, 11, 17, 19, 22, 23, 24, 24, 27, 32, 32, 32, 31, 30, 33, 37, 39, 38, 39, 39, 41, 43, 43, 40, 37, 35, 37, 40, 37, 38, 36, 35, 35, 39, 39, 39, 37, 35, 37, 39, 37, 36, 34, 34, 35, 38, 37, 35, 32, 32, 34, 37, 34, 36, 30, 31, 32, 36, 34, 33, 31, 30, 32, 32, 32, 30, 29, 28, 28, 31, 31, 34, 39, 45, 56, 71, 87, 103, 118, 137, 160, 185, 204, 218, 226, 230, 222, 203, 173, 136, 102, 76, 60, 53, 49, 46, 46, 47, 47, 47, 42, 40, 36, 34, 32, 32, 32, 29, 26, 26, 26, 28, 25, 24, 20, 22, 22, 26, 25, 24, 20, 19, 18, 20, 23, 21, 19, 16, 18, 21, 23, 21, 18, 17, 16, 18, 17, 18 }


no. 3600 point