{ 54, 54, 54, 54, 54, 52, 49, 46, 43, 39, 36, 33, 29, 27, 28, 34, 45, 59, 75, 86, 96, 105, 111, 116, 119, 122, 123, 126, 128, 129, 131, 133, 134, 136, 138, 142, 146, 148, 150, 151, 153, 154, 157, 159, 161, 163, 166, 168, 171, 172, 174, 174, 174, 174, 175, 176, 176, 177, 178, 179, 180, 182, 183, 183, 184, 185, 187, 189, 191, 192, 193, 195, 197, 199, 200, 200, 201, 203, 205, 208, 209, 210, 211, 213, 214, 215, 215, 215, 215, 216, 217, 217, 217, 217, 216, 216, 216, 215, 214, 212, 210, 209, 207, 205, 203, 201, 199, 197, 195, 193, 191, 188, 185, 183, 180, 177, 174, 171, 168, 167, 166, 163, 161, 159, 156, 154, 153, 152, 151, 149, 147, 147, 147, 146, 145, 144, 142, 143, 143, 142, 141, 140, 139, 140, 140, 140, 139, 139, 139, 139, 139, 139, 139, 138, 138, 138, 139, 139, 139, 139, 138, 138, 139, 139, 139, 139, 137, 138, 139, 139, 138, 139, 139, 140, 140, 141, 141, 141, 141, 142, 142, 142, 141, 141, 141, 141, 141, 141, 141, 141, 140, 141, 142, 142, 141, 140, 139, 140, 141, 142, 141, 141, 140, 139, 140, 140, 140, 139, 139, 140, 140, 141, 141, 140, 140, 140, 141, 140, 141, 140, 140, 141, 141, 141, 140, 140, 140, 140, 141, 141, 141, 140, 140, 141, 141, 141, 141, 140, 140, 140, 141, 141, 141, 140, 140, 140, 141, 142, 142, 141, 140, 141, 143, 143, 143, 144, 144, 146, 148, 149, 150, 152, 156, 163, 175, 200, 230, 250, 255, 251, 247, 244, 241, 237, 232, 226, 223, 218, 215, 210, 204, 199, 193, 186, 178, 169, 160, 150, 139, 127, 114, 102, 92, 82, 74, 66, 59, 54, 50, 48, 46, 43, 39, 34, 31, 29, 28, 24, 22, 21, 26, 36, 48, 59, 69, 78, 84, 90, 94, 98, 101, 103, 104, 107, 108, 109, 109, 109, 110, 114, 117, 120, 123, 125, 128, 130, 135, 138, 141, 144, 148, 150, 154, 157, 159, 161, 161, 161, 162, 163, 164, 164, 165, 166, 168, 169, 171, 172, 172, 174, 176, 177, 177, 177, 179, 181, 184, 185, 187, 188, 189, 191, 193, 195, 197, 198, 200, 202, 203, 205, 207, 208, 207, 208, 209, 210, 210, 210, 210, 210, 211, 211, 210, 209, 208, 207, 207, 206, 203, 203, 201, 199, 199, 197, 195, 193, 190, 188, 186, 184, 181, 178, 175, 173, 171, 170, 167, 165, 162, 161, 159, 157, 156, 154, 152, 151, 150, 149, 148, 147, 146, 145, 145, 144, 143, 143, 142, 142, 142, 142, 141, 141, 141, 141, 141, 141, 140, 139, 139, 139, 140, 140, 139, 138, 139, 139, 139, 140, 140, 139, 138, 138, 139, 140, 140, 139, 138, 139, 141, 142, 143, 141, 141, 140, 141, 142, 142, 141, 141, 142, 142, 142, 141, 140, 140, 141, 141, 141, 140, 140, 140, 141, 141, 141, 139, 139, 139, 139, 140, 141, 140, 139, 139, 141, 142, 143, 143, 143, 144, 145, 148, 150, 152, 152, 153, 154, 155, 155, 157, 158, 158, 157, 157, 156, 155, 154, 153, 154, 155, 155, 154, 153, 153, 153, 152, 151, 149, 148, 146, 145, 145, 143, 142, 141, 140, 139, 139, 139, 139, 138, 136, 137, 136, 136, 136, 136, 137, 138, 140, 142, 145, 155, 176, 207, 236, 247, 242, 234, 228, 226, 225, 220, 216, 211, 206, 203, 199, 195, 190, 184, 178, 173, 167, 161, 154, 146, 138, 132, 125, 118, 109, 100, 90, 82, 78, 76, 74, 71, 69, 66, 61, 56, 50, 45, 42, 37, 35, 32, 34, 39, 46, 55, 64, 73, 82, 87, 90, 93, 96, 98, 100, 102, 104, 105, 106, 107, 108, 111, 113, 117, 120, 125, 127, 129, 132, 136, 140, 144, 148, 151, 153, 156, 159, 161, 162, 163, 164, 165, 166, 167, 167, 168, 169, 170, 172, 172, 173, 174, 174, 176, 177, 178, 180, 181, 181, 183, 185, 187, 187, 189, 190, 191, 193, 195, 196, 197, 198, 200, 201, 202, 203, 203, 205, 205, 206, 207, 207, 207, 207, 207, 208, 207, 207, 206, 206, 205, 205, 203, 203, 201, 200, 199, 198, 197, 195, 193, 192, 190, 189, 187, 185, 183, 180, 179, 177, 175, 173, 171, 168, 167, 166, 164, 162, 160, 157, 156, 155, 153, 152, 150, 148, 148, 148, 147, 146, 145, 143, 143, 144, 143, 143, 142, 142, 141, 141, 141, 140, 140, 140, 140, 141, 140, 140, 139, 139, 139, 140, 139, 139, 139, 139, 140, 140, 141, 142, 142, 143, 145, 147, 149, 151, 152, 153, 154, 155, 156, 157, 157, 158, 159, 159, 157, 156, 154, 153, 153, 154, 154, 155, 154, 153, 155, 154, 154, 153, 152, 151, 150, 148, 147, 146, 145, 144, 143, 142, 142, 140, 139, 138, 137, 137, 136, 136, 134, 134, 135, 135, 134, 133, 133, 133, 133, 134, 133, 133, 133, 132, 132, 133, 133, 132, 132, 132, 132, 133, 133, 133, 132, 132, 132, 133, 133, 132, 132, 131, 131, 132, 132, 133, 132, 132, 131, 133, 133, 133, 133, 132, 132, 133, 133, 133, 132, 132, 132, 133, 134, 134, 134, 134, 134, 136, 136, 137, 137, 138, 141, 146, 158, 180, 208, 233, 243, 240, 234, 229, 226, 223, 219, 215, 210, 206, 201, 197, 194, 190, 185, 179, 172, 165, 159, 152, 144, 134, 123, 113, 103, 93, 84, 75, 65, 57, 52, 50, 48, 47, 45, 44, 41, 37, 32, 29, 27, 24, 22, 23, 26, 32, 39, 45, 54, 63, 72, 80, 85, 88, 92, 96, 100, 102, 104, 107, 109, 111, 112, 112, 113, 116, 120, 124, 127, 129, 131, 135, 138, 141, 145, 147, 150, 154, 157, 160, 163, 165, 166, 167, 169, 170, 171, 171, 171, 172, 174, 175, 176, 176, 177, 177, 178, 180, 180, 181, 181, 182, 184, 185, 186, 187, 188, 188, 189, 191, 192, 193, 195, 196, 198, 199, 200, 199, 200, 202, 203, 204, 204, 204, 204, 205, 205, 206, 206, 205, 206, 207, 207, 207, 206, 205, 204, 203, 203, 202, 201, 200, 199, 198, 197, 196, 195, 193, 192, 190, 190, 189, 187, 185, 184, 183, 182, 181, 181, 179, 179, 179, 179, 179, 178, 177, 175, 175, 175, 174, 174, 173, 171, 168, 167, 164, 163, 161, 159, 160, 160, 159, 158, 157, 156, 155, 154, 153, 152, 151, 149, 148, 147, 146, 144, 142, 140, 140, 138, 137, 136, 135, 135, 135, 134, 133, 132, 131, 130, 131, 131, 131, 130, 131, 130, 130, 130, 130, 130, 130, 129, 129, 130, 130, 130, 129, 129, 129, 130, 130, 130, 130, 130, 130, 131, 130, 130, 130, 130, 130, 131, 130, 129, 128, 127, 127, 128, 129, 129, 129, 128, 128, 128, 128, 128, 129, 129, 129, 129, 128, 128, 127, 129, 130, 131, 130, 130, 129, 129, 130, 129, 129, 128, 128, 128, 129, 129, 130, 131, 131, 130, 131, 132, 132, 132, 131, 130, 130, 130, 132, 132, 132, 131, 132, 132, 133, 133, 133, 133, 133, 134, 134, 135, 135, 135, 135, 135, 135, 136, 136, 136, 137, 138, 138, 139, 142, 148, 161, 186, 217, 240, 246, 239, 232, 228, 226, 222, 218, 212, 208, 204, 199, 195, 189, 183, 176, 169, 162, 154, 145, 136, 127, 117, 106, 95, 86, 77, 69, 62, 56, 52, 49, 48, 47, 45, 41, 36, 32, 28, 26, 24, 22, 21, 25, 33, 43, 53, 63, 72, 80, 84, 88, 91, 96, 99, 101, 104, 107, 110, 111, 111, 111, 112, 115, 119, 123, 125, 128, 130, 133, 136, 139, 142, 146, 150, 154, 156, 159, 162, 163, 165, 166, 167, 168, 168, 169, 170, 172, 173, 173, 174, 174, 176, 178, 179, 181, 182, 183, 185, 186, 188, 190, 192, 195, 198, 201, 204, 206, 209, 210, 212, 214, 215, 217, 218, 220, 220, 220, 220, 220, 220, 220, 220, 220, 221, 221, 220, 219, 218, 218, 218, 216, 214, 212, 210, 208, 207, 204, 202, 199, 197, 194, 192, 191, 188, 186, 183, 180, 178, 175, 173, 170, 168, 166, 164, 161, 158, 155, 153, 151, 150, 149, 146, 144, 142, 141, 140, 138, 136, 135, 134, 134, 133, 133, 131, 131, 130, 129, 129, 129, 128, 127, 126, 126, 126, 126, 126, 125, 125, 125, 125, 125, 125, 124, 123, 124, 124, 124, 123, 123, 123, 124, 124, 123, 123, 123, 123, 124, 125, 125, 125, 124, 124, 124, 125, 126, 125, 124, 124, 125, 126, 126, 126, 126, 126, 126, 127, 127, 127, 127, 127, 128, 128, 127, 127, 127, 127, 128, 128, 128, 128, 128, 128, 129, 129, 129, 129, 128, 127, 128, 128, 128, 128, 128, 127, 128, 129, 129, 129, 128, 128, 128, 129, 129, 128, 128, 129, 129, 130, 130, 129, 129, 129, 129, 130, 130, 129, 129, 128, 130, 130, 130, 130, 130, 130, 131, 131, 131, 130, 131, 130, 130, 131, 131, 131, 131, 131, 131, 132, 132, 132, 132, 132, 134, 135, 135, 136, 136, 137, 141, 149, 166, 195, 225, 240, 238, 228, 223, 219, 216, 211, 206, 200, 195, 189, 183, 176, 171, 164, 155, 145, 136, 126, 116, 106, 93, 81, 71, 62, 53, 46, 41, 36, 33, 32, 30, 29, 25, 21, 18, 15, 12, 10, 8, 8, 13, 22, 34, 46, 58, 68, 76, 80, 86, 91, 96, 102, 107, 111, 115, 119, 121, 124, 126, 130, 136, 140, 142, 143, 145, 147, 151, 154, 158, 162, 164, 167, 170, 172, 173, 174, 173, 173, 173, 172, 172, 172, 171, 171, 172, 172, 172, 173, 172, 172, 174, 175, 175, 175, 176, 177, 178, 180, 181, 183, 184, 185, 187, 189, 190, 191, 192, 193, 195, 197, 197, 198, 198, 199, 200, 201, 201, 200, 200, 200, 200, 201, 199, 198, 197, 196, 194, 193, 192, 190, 189, 186, 185, 183, 180, 178, 176, 173, 171, 169, 166, 164, 161, 159, 157, 155, 152, 150, 147, 144, 143, 141, 139, 137, 135, 133, 133, 133, 131, 129, 128, 127, 127, 127, 126, 126, 125, 125, 125, 125, 124, 123, 123, 122, 123, 123, 123, 123, 122, 123, 123, 124, 122, 122, 122, 121, 122, 122, 123, 123, 123, 123, 124, 124, 124, 123, 123, 123, 124, 124, 124, 124, 124, 124, 125, 126, 125, 125, 125, 125, 126, 127, 126, 126, 125, 125, 126, 127, 127, 127, 126, 126, 126, 126, 127, 126, 126, 126, 127, 127, 126, 126, 126, 126, 126, 127, 126, 126, 126, 126, 127, 126, 126, 126, 125, 126, 127, 127, 127, 127, 127, 126, 126, 127, 128, 127, 127, 126, 128, 128, 128, 127, 127, 126, 127, 129, 128, 128, 127, 127, 128, 128, 128, 128, 128, 128, 129, 129, 129, 129, 129, 129, 130, 130, 130, 129, 129, 129, 130, 131, 132, 133, 134, 135, 137, 142, 155, 179, 211, 232, 233, 224, 215, 213, 211, 210, 206, 202, 197, 191, 186, 181, 178, 173, 165, 156, 147, 136, 125, 115, 102, 89, 77, 66, 57, 50, 43, 40, 37, 34, 33, 31, 25, 20, 16, 12, 10, 8, 7, 8, 12, 21, 31, 41, 50, 57, 64, 70, 76, 81, 86, 89, 93, 96, 98, 100, 101, 102, 103, 105, 110, 113, 117, 120, 123, 126, 131, 136, 139, 141, 144, 147, 150, 154, 156, 157, 158, 159, 160, 162, 162, 163, 164, 165, 167, 167, 168, 169, 170, 171, 172, 173, 175, 177, 178, 180, 182, 183, 185, 186, 188, 189, 191, 194, 195, 197, 198, 199, 203, 204, 205, 207, 207, 208, 209, 210, 211, 211, 210, 210, 211, 211, 211, 210, 208, 207, 205, 204, 202, 201, 199, 197, 196, 193, 191, 189, 186, 183, 182, 180, 178, 175, 172, 169, 167, 166, 163, 161, 158, 156, 154, 153, 150, 147, 144, 143, 142, 141, 141, 140, 139, 137, 136, 137, 137, 138, 137, 136, 135, 135, 135, 134, 133, 133, 133, 133, 132, 131, 131, 131, 132, 134, 133, 133, 133, 132, 133, 133, 131, 130, 132, 133, 133, 132, 133, 134, 133, 133, 133, 134, 134, 133, 133, 133, 133, 134, 134, 134, 133, 134, 135, 135, 135, 135, 133, 133, 133, 136, 136, 136, 135, 135, 135, 134, 134, 133, 133, 134, 134, 135, 134, 133, 133, 133, 133, 134, 133, 133, 133, 133, 133, 134, 133, 133, 132, 132, 133, 134, 134, 135, 135, 136, 138, 138, 140, 142, 145, 146, 148, 149, 149, 149, 149, 150, 152, 154, 154, 153, 152, 150, 150, 150, 150, 149, 149, 149, 149, 148, 147, 147, 145, 144, 143, 143, 142, 140, 138, 137, 137, 137, 136, 137, 137, 138, 144, 160, 186, 218, 237, 233, 220, 212, 209, 205, 199, 194, 189, 183, 176, 171, 165, 159, 152, 144, 135, 128, 121, 114, 107, 99, 89, 78, 67, 58, 50, 43, 41, 39, 37, 36, 35, 32, 28, 23, 19, 17, 15, 13, 12, 14, 19, 29, 40, 51, 60, 69, 75, 79, 83, 87, 89, 92, 94, 95, 97, 100, 102, 105, 107, 112, 117, 120, 121, 123, 128, 136, 143, 147, 148, 150, 152, 156, 159, 160, 161, 162, 163, 163, 165, 167, 169, 170, 172, 174, 175, 177, 177, 179, 179, 181, 183, 185, 186, 187, 189, 190, 191, 194, 196, 198, 200, 201, 202, 204, 205, 207, 207, 208, 210, 211, 210, 211, 211, 210, 211, 211, 210, 210, 209, 208, 207, 207, 205, 203, 201, 199, 198, 197, 194, 192, 189, 187, 186, 184, 181, 179, 177, 174, 172, 170, 167, 165, 162, 159, 157, 156, 154, 151, 149, 147, 145, 145, 143, 142, 140, 139, 139, 138, 137, 136, 135, 134, 135, 135, 135, 134, 133, 133, 133, 133, 133, 132, 132, 132, 132, 132, 132, 131, 132, 131, 131, 132, 131, 132, 131, 131, 131, 132, 132, 131, 131, 131, 132, 133, 133, 132, 133, 133, 135, 136, 138, 140, 142, 145, 146, 148, 149, 150, 149, 150, 152, 153, 154, 153, 151, 149, 149, 149, 149, 148, 147, 147, 147, 147, 146, 145, 144, 142, 141, 141, 139, 137, 135, 134, 133, 132, 131, 130, 129, 128, 127, 128, 127, 125, 124, 124, 124, 125, 125, 125, 125, 125, 126, 126, 125, 124, 124, 123, 123, 124, 124, 124, 124, 123, 124, 123, 123, 123, 123, 123, 124, 125, 124, 123, 124, 124, 124, 125, 125, 124, 124, 123, 124, 126, 126, 126, 126, 127, 129, 131, 137, 147, 170, 203, 230, 234, 223, 214, 209, 205, 203, 199, 193, 189, 184, 180, 176, 171, 166, 160, 154, 147, 141, 135, 128, 119, 111, 102, 93, 84, 76, 66, 56, 49, 45, 44, 43, 41, 39, 36, 32, 28, 25, 21, 18, 16, 16, 19, 25, 32, 41, 50, 60, 70, 76, 81, 83, 87, 91, 95, 98, 101, 102, 104, 104, 106, 107, 110, 113, 116, 120, 124, 127, 130, 133, 138, 142, 145, 149, 151, 153, 156, 159, 161, 162, 162, 163, 164, 166, 167, 168, 168, 169, 169, 171, 173, 174, 174, 175, 177, 178, 181, 182, 183, 184, 185, 187, 189, 190, 191, 192, 193, 195, 197, 198, 199, 200, 200, 202, 203, 204, 203, 204, 205, 205, 205, 206, 205, 204, 203, 203, 203, 201, 200, 199, 198, 197, 196, 194, 192, 189, 187, 186, 185, 183, 180, 177, 175, 173, 171, 169, 166, 163, 161, 160, 159, 156, 154, 153, 152, 151, 151, 149, 149, 148, 149, 150, 152, 154, 154, 155, 154, 155, 156, 156, 155, 155, 153, 151, 151, 148, 147, 146, 146, 146, 147, 147, 145, 144, 142, 142, 142, 140, 138, 137, 135, 134, 133, 131, 130, 128, 128, 127, 127, 127, 125, 124, 123, 124, 124, 123, 123, 122, 122, 122, 123, 123, 123, 122, 122, 123, 123, 122, 122, 122, 122, 122, 122, 122, 121, 120, 120, 121, 121, 121, 120, 120, 120, 120, 120, 120, 120, 119, 119, 119, 120, 120, 120, 119, 119, 119, 120, 120, 119, 119, 119, 120, 120, 119, 119, 119, 119, 120, 120, 120, 120, 120, 120, 121, 122, 122, 121, 120, 121, 121, 122, 122, 122, 122, 122, 123, 123, 123, 122, 122, 122, 122, 123, 124, 124, 123, 124, 124, 125, 125, 124, 125, 126, 126, 127, 127, 127, 126, 128, 130, 132, 137, 145, 163, 193, 221, 235, 230, 221, 215, 212, 210, 206, 201, 196, 190, 185, 181, 176, 170, 164, 157, 151, 143, 136, 128, 119, 110, 100, 92, 83, 74, 64, 56, 48, 42, 39, 37, 34, 32, 30, 28, 26, 22, 19, 17, 14, 12, 11, 11, 14, 19, 26, 35, 44, 53, 62, 69, 75, 79, 83, 88, 91, 95, 99, 102, 103, 104, 105, 106, 108, 113, 116, 118, 120, 122, 125, 129, 132, 136, 140, 143, 146, 149, 153, 156, 158, 160, 161, 162, 163, 164, 164, 164, 165, 166, 168, 168, 169, 170, 171, 172, 174, 175, 176, 177, 178, 179, 181, 183, 184, 185, 186, 188, 189, 192, 193, 195, 197, 199, 201, 204, 207, 209, 212, 214, 217, 218, 218, 219, 219, 220, 221, 223, 223, 221, 219, 218, 217, 215, 213, 211, 210, 209, 208, 206, 203, 200, 197, 195, 192, 190, 186, 183, 180, 177, 174, 170, 166, 163, 160, 157, 155, 152, 149, 145, 143, 141, 139, 137, 135, 134, 132, 131, 131, 130, 130, 128, 127, 126, 126, 124, 124, 122, 123, 123, 123, 122, 122, 122, 121, 121, 121, 121, 121, 120, 120, 120, 121, 120, 118, 118, 118, 119, 119, 119, 119, 119, 120, 120, 120, 119, 119, 118, 118, 118, 119, 120, 119, 119, 119, 119, 120, 120, 120, 120, 120, 120, 121, 121, 121, 121, 121, 121, 121, 120, 119, 119, 120, 121, 121, 122, 120, 120, 120, 121, 122, 123, 121, 121, 121, 122, 122, 123, 123, 122, 122, 123, 123, 123, 122, 122, 122, 123, 123, 123, 124, 124, 124, 124, 124, 124, 124, 124, 124, 123, 123, 124, 124, 125, 124, 124, 126, 126, 125, 125, 126, 126, 126, 127, 126, 126, 125, 125, 126, 126, 126, 126, 126, 126, 127, 127, 127, 126, 127, 128, 128, 129, 129, 129, 130, 132, 134, 138, 145, 161, 189, 217, 231, 228, 219, 212, 209, 207, 202, 198, 192, 187, 181, 176, 171, 165, 159, 152, 144, 137, 128, 118, 108, 97, 86, 76, 65, 54, 45, 37, 31, 26, 22, 20, 18, 16, 15, 14, 11, 8, 5, 2, 2, 1, 0, 1, 5, 12, 22, 34, 45, 56, 64, 70, 75, 79, 84, 88, 91, 94, 99, 102, 105, 106, 108, 111, 114, 118, 124, 128, 131, 135, 139, 144, 148, 154, 158, 162, 166, 170, 174, 178, 182, 186, 187, 187, 188, 186, 186, 186, 187, 189, 190, 192, 192, 191, 192, 192, 194, 193, 193, 193, 193, 195, 195, 196, 196, 196, 197, 198, 199, 200, 200, 200, 200, 202, 203, 205, 206, 207, 208, 209, 210, 211, 211, 211, 212, 212, 213, 213, 211, 210, 210, 210, 209, 207, 205, 204, 203, 203, 202, 200, 198, 195, 193, 191, 189, 187, 184, 181, 180, 177, 175, 173, 170, 167, 165, 163, 161, 158, 155, 153, 151, 149, 148, 144, 143, 140, 140, 138, 136, 133, 132, 130, 129, 130, 130, 129, 127, 127, 126, 126, 126, 125, 125, 125, 124, 125, 125, 124, 123, 122, 122, 123, 124, 124, 123, 123, 124, 125, 125, 124, 124, 122, 122, 123, 123, 122, 122, 122, 124, 124, 125, 125, 124, 123, 124, 125, 126, 126, 125, 125, 125, 126, 127, 127, 127, 126, 126, 126, 126, 127, 127, 127, 126, 127, 127, 126, 126, 125, 125, 127, 127, 127, 126, 125, 125, 126, 127, 127, 126, 125, 126, 126, 126, 126, 126, 126, 126, 127, 128, 128, 127, 127, 127, 127, 127, 127, 127, 126, 126, 127, 128, 129, 128, 128, 128, 127, 127, 127, 128, 128, 128, 128, 128, 128, 127, 127, 128, 129, 129, 129, 129, 128, 129, 129, 130, 129, 129, 129, 129, 129, 130, 130, 130, 130, 131, 132, 133, 135, 136, 140, 148, 166, 194, 222, 235, 229, 220, 213, 211, 208, 204, 199, 193, 189, 184, 180, 175, 168, 162, 154, 147, 139, 131, 122, 113, 104, 95, 86, 78, 69, 60, 54, 48, 47, 45, 44, 42, 40, 35, 30, 25, 21, 18, 15, 12, 14, 17, 25, 36, 48, 59, 68, 76, 79, 83, 86, 89, 93, 95, 95, 98, 99, 100, 100, 101, 102, 104, 107, 109, 111, 113, 117, 123, 127, 131, 134, 137, 139, 141, 143, 147, 150, 152, 153, 154, 155, 156, 157, 158, 159, 160, 161, 163, 164, 164, 164, 164, 165, 166, 167, 168, 169, 171, 172, 174, 174, 175, 176, 178, 180, 181, 183, 184, 185, 187, 189, 191, 193, 193, 194, 196, 196, 198, 198, 199, 199, 199, 201, 201, 201, 201, 201, 202, 201, 201, 200, 199, 198, 197, 197, 196, 195, 193, 191, 189, 188, 186, 183, 182, 179, 177, 175, 174, 172, 169, 166, 165, 162, 161, 158, 157, 153, 151, 150, 149, 147, 144, 143, 142, 141, 140, 140, 138, 137, 136, 136, 135, 135, 133, 132, 132, 132, 132, 132, 132, 131, 131, 131, 131, 131, 131, 130, 130, 130, 129, 129, 129, 128, 129, 130, 130, 130, 129, 129, 129, 129, 129, 129, 129, 129, 129, 130, 131, 131, 131, 130, 130, 131, 132, 132, 131, 130, 131, 131, 131, 131, 131, 131, 132, 132, 132, 132, 131, 131, 131, 132, 133, 132, 132, 130, 130, 131, 131, 131, 130, 130, 130, 130, 131, 131, 131, 129, 130, 131, 130, 131, 130, 129, 129, 130, 130 }


no. 3600 point