{ 111, 110, 110, 110, 110, 109, 110, 110, 110, 110, 111, 111, 111, 111, 110, 110, 109, 109, 109, 110, 110, 110, 110, 111, 111, 111, 110, 110, 109, 109, 109, 110, 112, 113, 114, 115, 115, 115, 115, 114, 113, 115, 115, 117, 118, 118, 118, 118, 115, 115, 113, 113, 113, 113, 112, 111, 111, 111, 112, 112, 112, 111, 110, 108, 107, 107, 106, 106, 106, 107, 108, 110, 110, 110, 109, 108, 108, 108, 108, 107, 108, 107, 106, 105, 107, 110, 118, 128, 141, 158, 177, 194, 207, 207, 193, 168, 141, 116, 101, 98, 101, 109, 115, 119, 120, 119, 117, 115, 114, 113, 113, 111, 111, 111, 111, 111, 112, 112, 112, 112, 113, 112, 112, 111, 111, 111, 111, 110, 111, 111, 113, 112, 113, 114, 113, 113, 113, 113, 113, 112, 113, 113, 114, 115, 115, 115, 114, 114, 114, 114, 113, 113, 115, 115, 115, 116, 116, 116, 115, 115, 115, 114, 115, 115, 116, 116, 116, 116, 117, 117, 116, 116, 116, 116, 115, 116, 116, 117, 118, 118, 118, 118, 118, 118, 118, 118, 118, 118, 119, 121, 121, 123, 123, 123, 124, 123, 123, 122, 123, 123, 124, 124, 124, 123, 123, 123, 122, 121, 119, 118, 118, 117, 117, 118, 118, 118, 119, 121, 123, 123, 126, 126, 126, 122, 113, 97, 79, 58, 40, 26, 16, 8, 4, 1, 0, 0, 2, 5, 11, 17, 24, 30, 37, 42, 48, 53, 57, 62, 63, 66, 68, 69, 70, 71, 72, 73, 73, 75, 76, 81, 89, 98, 108, 117, 124, 129, 132, 132, 132, 132, 132, 132, 134, 136, 138, 140, 141, 142, 142, 142, 142, 143, 143, 145, 146, 147, 150, 151, 152, 153, 153, 153, 155, 155, 155, 156, 157, 160, 161, 163, 164, 165, 166, 166, 167, 168, 169, 171, 172, 174, 177, 179, 180, 182, 183, 183, 181, 183, 183, 183, 183, 182, 182, 181, 180, 177, 176, 174, 172, 169, 167, 166, 164, 163, 161, 160, 158, 156, 153, 151, 150, 148, 146, 144, 143, 142, 142, 140, 138, 137, 136, 134, 133, 131, 129, 129, 128, 127, 126, 126, 125, 124, 123, 122, 120, 120, 118, 118, 118, 118, 118, 117, 116, 117, 116, 115, 114, 113, 113, 113, 113, 113, 113, 114, 113, 113, 112, 112, 111, 110, 110, 110, 111, 110, 111, 111, 111, 110, 110, 109, 108, 109, 108, 108, 107, 108, 108, 110, 109, 110, 109, 108, 108, 108, 107, 107, 108, 108, 109, 109, 110, 109, 108, 107, 107, 106, 107, 107, 107, 107, 106, 107, 107, 107, 107, 107, 106, 105, 105, 104, 105, 106, 106, 107, 107, 107, 106, 106, 105, 105, 105, 105, 105, 106, 107, 107, 107, 107, 107, 106, 106, 106, 105, 105, 106, 106, 107, 106, 106, 105, 105, 105, 105, 105, 105, 105, 105, 106, 106, 107, 107, 106, 107, 105, 105, 105, 105, 105, 106, 106, 107, 107, 107, 107, 106, 106, 105, 105, 105, 105, 105, 105, 106, 105, 107, 107, 107, 106, 106, 105, 105, 106, 105, 106, 107, 107, 107, 107, 107, 105, 105, 105, 105, 105, 106, 107, 107, 107, 107, 107, 107, 106, 105, 105, 106, 105, 105, 106, 107, 106, 107, 107, 107, 107, 107, 107, 108, 108, 109, 110, 110, 110, 112, 113, 117, 120, 123, 129, 133, 136, 137, 133, 123, 107, 87, 69, 53, 40, 30, 24, 21, 18, 18, 18, 18, 19, 19, 21, 24, 27, 31, 35, 40, 46, 51, 57, 61, 64, 64, 66, 66, 67, 67, 69, 70, 72, 75, 78, 81, 83, 87, 93, 100, 108, 115, 121, 126, 127, 129, 129, 129, 130, 130, 132, 132, 133, 134, 135, 134, 135, 137, 137, 139, 140, 141, 142, 143, 143, 143, 144, 144, 146, 147, 147, 149, 150, 151, 154, 154, 155, 156, 157, 158, 161, 163, 165, 166, 169, 171, 173, 174, 175, 176, 177, 180, 181, 183, 185, 188, 190, 191, 193, 194, 194, 195, 196, 196, 196, 198, 198, 199, 199, 198, 198, 196, 194, 192, 190, 189, 187, 187, 185, 184, 182, 180, 177, 175, 172, 170, 167, 165, 162, 161, 159, 158, 157, 154, 153, 150, 149, 145, 143, 142, 139, 138, 137, 136, 135, 134, 133, 132, 130, 128, 127, 126, 125, 124, 124, 124, 124, 123, 123, 122, 122, 121, 120, 120, 119, 120, 121, 121, 123, 124, 128, 132, 134, 140, 145, 150, 156, 165, 173, 180, 189, 197, 204, 209, 215, 219, 225, 229, 236, 241, 245, 250, 252, 254, 255, 254, 254, 253, 251, 250, 247, 247, 249, 250, 250, 246, 237, 222, 202, 180, 155, 133, 116, 105, 98, 95, 94, 93, 91, 88, 85, 81, 79, 77, 76, 74, 75, 73, 73, 72, 71, 68, 67, 67, 66, 65, 64, 64, 64, 62, 62, 61, 60, 59, 57, 55, 54, 52, 51, 50, 49, 49, 48, 47, 45, 43, 42, 40, 38, 36, 34, 33, 32, 31, 30, 29, 27, 25, 23, 21, 19, 19, 17, 16, 16, 15, 15, 16, 15, 15, 15, 14, 15, 16, 16, 17, 18, 21, 23, 24, 27, 28, 30, 32, 35, 38, 40, 44, 48, 51, 54, 56, 60, 62, 65, 67, 70, 73, 75, 78, 81, 82, 85, 86, 86, 87, 88, 90, 91, 94, 98, 104, 110, 114, 118, 118, 111, 99, 83, 63, 45, 30, 19, 12, 6, 3, 2, 1, 2, 2, 4, 5, 10, 13, 17, 22, 28, 34, 39, 45, 49, 52, 54, 54, 54, 54, 56, 58, 60, 62, 65, 67, 70, 70, 72, 75, 80, 88, 96, 106, 115, 120, 123, 126, 128, 128, 129, 128, 129, 129, 131, 132, 134, 135, 136, 137, 139, 139, 140, 141, 142, 142, 143, 145, 147, 148, 150, 151, 153, 154, 155, 158, 158, 160, 161, 163, 165, 168, 171, 172, 174, 176, 177, 178, 179, 180, 182, 183, 185, 186, 188, 189, 188, 188, 186, 186, 185, 184, 183, 182, 181, 181, 181, 182, 182, 183, 180, 174, 163, 146, 124, 100, 78, 62, 51, 43, 37, 32, 27, 22, 21, 19, 20, 21, 23, 25, 27, 31, 34, 39, 46, 52, 57, 60, 63, 66, 68, 70, 72, 71, 72, 72, 73, 74, 76, 77, 81, 86, 92, 100, 108, 114, 120, 124, 125, 126, 127, 127, 128, 130, 132, 132, 134, 134, 135, 136, 136, 136, 137, 137, 138, 138, 140, 142, 142, 143, 144, 144, 144, 145, 146, 147, 148, 150, 152, 153, 155, 155, 156, 157, 158, 160, 160, 160, 160, 161, 161, 161, 161, 162, 163, 164, 164, 163, 159, 150, 135, 115, 92, 70, 50, 35, 25, 18, 12, 8, 5, 6, 8, 13, 16, 21, 26, 31, 37, 42, 48, 56, 60, 64, 66, 67, 69, 70, 71, 72, 74, 75, 78, 81, 86, 94, 102, 111, 119, 125, 130, 133, 134, 135, 134, 135, 135, 136, 138, 140, 142, 144, 146, 147, 148, 149, 150, 150, 151, 152, 153, 154, 156, 157, 158, 160, 161, 163, 164, 163, 163, 164, 165, 166, 169, 170, 171, 171, 172, 171, 170, 169, 168, 166, 165, 164, 164, 162, 160, 160, 158, 156, 155, 153, 154, 151, 147, 140, 126, 106, 84, 62, 43, 28, 19, 12, 9, 7, 6, 8, 10, 13, 16, 20, 24, 30, 34, 39, 43, 48, 54, 57, 60, 62, 64, 64, 65, 66, 67, 67, 69, 72, 74, 77, 81, 87, 96, 107, 117, 124, 130, 133, 133, 132, 132, 132, 134, 135, 137, 139, 140, 141, 141, 142, 142, 143, 142, 144, 147, 148, 150, 152, 153, 154, 154, 154, 155, 157, 157, 158, 160, 162, 164, 166, 167, 169, 169, 169, 169, 170, 170, 171, 172, 171, 172, 172, 172, 171, 169, 167, 165, 162, 161, 158, 157, 156, 156, 154, 154, 152, 150, 144, 134, 122, 104, 84, 66, 49, 37, 29, 23, 19, 17, 15, 14, 14, 16, 19, 20, 24, 28, 32, 38, 43, 48, 51, 55, 59, 61, 62, 65, 66, 68, 70, 72, 73, 75, 77, 80, 83, 90, 99, 110, 122, 131, 137, 140, 142, 141, 139, 137, 137, 137, 139, 140, 142, 142, 142, 143, 143, 143, 143, 143, 142, 142, 143, 145, 145, 148, 150, 150, 150, 152, 152, 152, 154, 153, 156, 156, 157, 159, 161, 162, 163, 164, 164, 164, 165, 165, 166, 166, 166, 166, 166, 165, 164, 162, 159, 157, 156, 153, 151, 149, 148, 146, 145, 143, 140, 139, 137, 137, 137, 137, 139, 138, 134, 126, 110, 91, 69, 50, 36, 27, 21, 18, 18, 16, 18, 18, 18, 19, 19, 21, 25, 29, 35, 41, 48, 54, 58, 61, 62, 63, 63, 64, 65, 66, 69, 70, 72, 77, 82, 89, 99, 109, 118, 126, 129, 131, 132, 131, 131, 132, 134, 137, 138, 139, 141, 142, 142, 142, 143, 144, 146, 148, 150, 152, 152, 155, 155, 156, 157, 158, 160, 161, 164, 166, 167, 170, 172, 174, 175, 176, 176, 177, 178, 178, 180, 179, 180, 180, 180, 178, 177, 175, 172, 170, 169, 166, 164, 163, 162, 161, 159, 157, 155, 151, 144, 133, 117, 98, 78, 60, 46, 36, 30, 27, 24, 21, 20, 17, 16, 16, 17, 21, 27, 32, 37, 42, 48, 53, 58, 61, 64, 66, 67, 69, 70, 70, 72, 75, 75, 81, 86, 94, 105, 114, 122, 127, 131, 134, 134, 134, 134, 135, 134, 135, 135, 137, 138, 139, 139, 140, 140, 142, 142, 143, 143, 144, 144, 145, 147, 148, 150, 151, 152, 154, 155, 156, 158, 158, 160, 161, 162, 163, 164, 167, 169, 171, 173, 174, 174, 174, 173, 171, 171, 171, 171, 171, 169, 169, 168, 165, 162, 159, 157, 154, 151, 150, 149, 147, 146, 145, 143, 140, 133, 122, 107, 86, 67, 51, 40, 32, 28, 25, 22, 21, 20, 19, 18, 19, 20, 22, 26, 31, 36, 42, 48, 54, 58, 60, 62, 63, 64, 65, 66, 68, 69, 72, 73, 75, 78, 81, 86, 93, 101, 111, 121, 128, 132, 134, 134, 134, 132, 132, 134, 135, 137, 138, 140, 142, 142, 143, 145, 145, 146, 147, 147, 149, 150, 152, 153, 156, 157, 159, 159, 160, 161, 162, 163, 164, 166, 169, 169, 171, 171, 172, 172, 172, 170, 170, 169, 167, 165, 164, 163, 162, 162, 159, 158, 155, 150, 144, 133, 117, 96, 75, 56, 41, 32, 25, 21, 18, 15, 13, 12, 12, 14, 18, 21, 27, 33, 40, 47, 54, 59, 62, 64, 66, 68, 70, 70, 72, 72, 74, 75, 79, 83, 91, 100, 111, 119, 126, 131, 133, 134, 135, 134, 134, 135, 134, 137, 137, 138, 140, 140, 142, 144, 145, 145, 146, 147, 147, 147, 147, 150, 151, 153, 155, 156, 157, 158, 159, 159, 161, 161, 163, 164, 165, 166, 168, 169, 171, 171, 172, 171, 171, 170, 171, 169, 169, 168, 168, 167, 166, 163, 162, 159, 157, 154, 153, 150, 149, 148, 147, 145, 143, 142, 139, 137, 134, 133, 131, 129, 128, 127, 127, 126, 124, 123, 123, 121, 122, 122, 121, 120, 121, 120, 121, 120, 121, 121, 121, 121, 121, 118, 117, 115, 115, 113, 113, 114, 113, 112, 111, 110, 110, 110, 109, 108, 107, 107, 107, 107, 106, 106, 105, 105, 104, 103, 103, 104, 103, 104, 105, 105, 106, 105, 105, 104, 104, 103, 103, 102, 101, 100, 99, 99, 103, 108, 116, 126, 138, 152, 167, 183, 193, 198, 192, 175, 150, 126, 106, 95, 92, 97, 103, 109, 111, 112, 112, 111, 111, 108, 107, 105, 104, 104, 102, 102, 103, 103, 104, 105, 104, 104, 104, 104, 103, 103, 103, 102, 103, 103, 103, 103, 104, 104, 103, 102, 102, 101, 101, 101, 102, 102, 102, 102, 102, 102, 102, 100, 100, 99, 99, 99, 98, 99, 99, 100, 100, 101, 99, 99, 98, 98, 97, 97, 97, 98, 98, 99, 99, 99, 99, 99, 98, 98, 98, 98, 99, 99, 100, 101, 102, 102, 102, 102, 103, 104, 105, 105, 108, 110, 111, 113, 113, 114, 114, 114, 113, 113, 113, 113, 112, 113, 113, 112, 112, 112, 110, 110, 109, 108, 107, 107, 107, 107, 107, 107, 108, 107, 107, 105, 105, 104, 104, 104, 105, 104, 104, 104, 104, 103, 104, 104, 103, 102, 102, 102, 102, 103, 103, 104, 104, 104, 103, 103, 102, 102, 101, 102, 102, 102, 103, 102, 103, 102, 101, 101, 101, 100, 100, 100, 101, 101, 102, 102, 102, 102, 102, 101, 101, 101, 100, 99, 99, 100, 100, 101, 101, 102, 103, 102, 102, 102, 102, 103, 104, 105, 105, 106, 106, 106, 106, 105, 106, 107, 108, 107, 107, 106, 106, 107, 107, 107, 105, 105, 105, 103, 103, 102, 103, 103, 102, 102, 101, 101, 100, 99, 99, 99, 98, 98, 99, 99, 99, 101, 102, 103, 104, 107, 110, 114, 119, 123, 125, 123, 115, 103, 87, 72, 61, 54, 52, 55, 60, 66, 70, 72, 70, 67, 65, 65, 67, 71, 79, 86, 92, 98, 101, 105, 107, 109, 110, 110, 110, 109, 109, 110, 110, 110, 111, 112, 113, 113, 114, 115, 115, 115, 115, 114, 115, 115, 116, 117, 118, 119, 119, 120, 119, 119, 118, 119, 118, 119, 121, 121, 122, 122, 123, 123, 123, 123, 124, 125, 125, 126, 128, 129, 129, 131, 133, 132, 134, 133, 134, 136, 136, 137, 139, 140, 141, 143, 144, 145, 145, 146, 146, 147, 147, 148, 148, 148, 150, 150, 151, 151, 151, 151, 150, 150, 150, 149, 149, 148, 148, 148, 147, 145, 144, 142, 140, 138, 136, 134, 133, 133, 132, 132, 130, 129, 128, 126, 124, 123, 122, 120, 119, 119, 118, 118, 117, 116, 115, 113, 112, 112, 111, 110, 110, 110, 110, 110, 110, 110, 109, 108, 107, 106, 105, 105, 105, 105, 106, 106, 105, 105, 105, 104, 103, 103, 102, 101, 103, 103, 103, 104, 103, 103, 103, 102, 101, 101, 100, 100, 100, 101, 101, 102, 102, 101, 101, 100, 100, 99, 99, 98, 99, 99, 100, 100, 100, 100, 99, 100, 99, 99, 99, 99, 99, 100, 100, 101, 101, 100, 100, 99, 99, 99, 99, 100, 102, 103, 104, 105, 105, 105, 104, 103, 103, 105, 105, 107, 109, 110, 113, 116, 120, 125, 129, 130, 126, 115, 97, 77, 59, 43, 30, 21, 14, 10, 6, 4, 4, 5, 6, 7, 11, 14, 18, 22, 26, 31, 35, 39, 44, 48, 52, 54, 56, 58, 59, 61, 62, 64, 64, 66, 68, 70, 72, 74, 77, 83, 91, 101, 109, 116, 121, 124, 124, 124, 124, 124, 126, 127, 129, 130, 132, 132, 133, 133, 133, 134, 135, 136, 137, 138, 139, 140, 142, 143, 143, 144, 145, 145, 147, 148, 150, 152, 154, 155, 156, 157, 158, 159, 161, 161, 163, 165, 167, 169, 172, 173, 174, 176, 177, 178, 179, 179, 180, 180, 181, 183, 183, 184, 184, 183, 182, 181, 179, 178, 177, 175, 175, 174, 174, 173, 172, 169, 168, 166, 164, 163, 161, 158, 158, 156, 156, 154, 153, 151, 149, 148, 145, 143, 141, 140, 138, 138, 137, 137, 135, 134, 132, 131, 128, 128, 125, 123, 123, 123, 121, 120, 121, 119, 118, 117, 116, 114, 113, 113, 112, 113, 113, 113, 113, 112, 111, 110, 109, 108, 107, 107, 107, 107, 108, 108, 108, 107, 107, 106, 106, 105, 105, 104, 104, 105, 105, 106, 107, 106, 105, 105, 104, 103, 103, 102, 103, 103, 103, 104, 103, 104, 104, 103, 102, 102, 101, 102, 101, 102, 102, 103, 104, 103, 102, 101, 100, 100, 99, 99, 99, 100, 100, 101, 102, 102, 102, 101, 99, 101, 100, 100, 100, 100, 100, 101, 102, 102, 102, 101, 101, 100, 101, 102, 104, 105, 106, 109, 111, 115, 118, 123, 128, 132, 134, 130, 121, 107, 89, 71, 55, 42, 33, 26, 21, 17, 15, 13, 13, 13, 14, 15, 17, 19, 21, 25, 30, 34, 40, 46, 51, 56, 59, 62, 63, 63, 65, 66, 67, 67, 70, 71, 74, 78, 83, 90, 98, 107, 115, 121, 123, 125, 125, 125, 125, 126, 128, 129, 131, 133, 133, 132, 133, 133, 134, 135, 135, 137, 139, 140, 140, 142, 143, 143, 144, 144, 145, 147, 149, 150, 153, 155, 156, 157, 159, 161, 161, 163, 164, 165, 168, 170, 172, 173, 175, 177, 178, 178, 178, 179, 179, 179, 179, 180, 180, 181, 180, 179, 177, 177, 175, 174, 172, 171, 169, 169, 167, 167, 166, 164, 163, 160, 159, 156, 155, 152, 151, 150, 150, 148, 147, 145, 143, 141, 139, 137, 135, 134, 132, 132, 131, 130, 129, 127, 126, 124, 123, 121, 119, 118, 116, 116, 116, 115, 114, 114, 113, 112, 110, 110, 108, 106, 107, 107, 107, 107, 106, 107, 105, 105, 104, 103, 103, 103, 104, 104, 105, 105, 104, 104, 104, 103, 102, 102, 102, 101, 101, 102, 102, 102, 102, 103, 102, 101, 100, 100, 99, 99, 100, 101, 101, 102, 102, 101, 102, 100, 100, 99, 99, 99, 99, 99, 100, 100, 101, 100, 100, 100, 99, 99, 98, 98, 99, 99, 99, 100, 100, 101, 101, 100, 99, 98, 99, 98, 99, 101, 102, 105, 108, 112, 118, 122, 126, 126, 122, 112, 97, 79, 62, 48, 36, 27, 22, 18, 14, 11, 11, 11, 11, 12, 15, 19, 22, 26, 29, 33, 38, 42, 50, 56, 61, 64, 66, 66, 66, 67, 68, 67, 69, 71, 72, 74, 75, 79, 86, 94, 104, 112, 118, 122, 123, 123, 122, 122, 122, 124, 126, 128, 129, 131, 131, 131, 132, 132, 133, 132, 134, 136, 137, 138, 140, 140, 142, 143, 143, 144, 145, 146, 147, 149, 151, 152, 154, 156, 157, 158, 159, 160, 161, 163, 164, 167, 169, 171, 172, 174, 175, 177, 177, 177, 178, 178, 179, 179, 179, 179, 179, 179, 177, 176, 174, 172, 170, 168, 167, 166, 164, 164, 162, 161, 159, 156, 155, 152, 151, 148, 147, 147, 145, 144, 142, 141, 139, 137, 136, 134, 131, 129, 128, 127, 125, 126, 123, 122, 121, 120, 118, 116, 115, 114, 112, 113, 111, 112, 111, 110, 110, 108, 107, 105, 105, 105, 104, 105, 105, 105, 104, 104, 104, 103, 102, 101, 100, 100, 100, 100, 100, 102, 101, 100, 100, 100, 99, 98, 98, 98, 97, 98, 98, 99, 99, 99, 100, 99, 98, 98, 97, 97, 98, 98, 99, 100, 99, 99, 99, 98, 97, 97, 97, 96, 97, 97, 97, 97, 98, 97, 97, 97, 97, 97, 95, 96, 96, 96, 97, 97, 97, 97, 97, 97, 96, 95, 95, 95, 95, 96, 96, 97, 97, 97, 97, 97, 96, 97, 98, 99, 102, 105, 111, 117, 123, 125, 122, 112, 96, 77, 58, 41, 29, 21, 15, 12, 8, 8, 7, 6, 5, 6, 7, 8, 13, 17, 21, 27, 33, 38, 44, 49, 53, 55, 56, 58, 59, 61, 63, 64, 67, 70, 73, 76, 81, 86, 94, 102, 109, 115, 121, 123, 123, 123, 123, 122, 123, 123, 124, 124, 125, 126, 126, 128, 129, 130, 132, 133, 132, 133, 134, 134, 136, 138, 140, 141, 142, 144, 146, 146, 147, 148, 149, 150, 152, 154, 156, 158, 160, 161, 162, 164, 165, 166, 168, 169, 171, 174, 174, 176, 177, 178, 179, 180, 179, 178, 178, 177, 177, 177, 177, 175, 175, 174, 172, 171, 169, 166, 165, 163, 162, 161, 159, 158, 157, 155, 153, 150, 149, 146, 145, 143, 142, 140, 140, 138, 137, 135, 133, 132, 129, 127, 125, 124, 123, 122, 120, 120, 119, 118, 116, 115, 114, 111, 110, 109, 108, 108, 108, 107, 105, 105, 104, 104, 102, 101, 101, 99, 100, 100, 100, 100, 100, 98, 99, 99, 97, 97, 95, 95, 95, 96, 96, 95, 96, 96, 95, 95, 94, 94, 94, 94, 93, 94, 95, 95, 95, 94, 94, 93, 93, 93, 92, 91, 92, 92, 93, 93, 94, 93, 94, 94, 93, 92, 91, 92, 91, 91, 92, 92, 93, 94, 93, 93, 92, 92, 91, 91, 92, 94, 96, 99, 104, 108, 113, 116, 116, 110, 100, 85, 67, 51, 37, 26, 18, 13, 8, 5, 2, 1, 0, 0, 1, 3, 5, 8, 12, 16, 21, 25, 30, 34, 38, 43, 46, 49, 51, 53, 54, 56, 57, 58, 57, 59, 60, 62, 64, 68, 73, 80, 88, 97, 104, 109, 113, 115, 116, 116, 117, 119, 119, 122, 123, 124, 125, 124, 124, 124, 125, 126, 127, 129, 130, 132, 133, 134, 135, 135, 136, 136, 137, 137, 139, 141, 143, 146, 148, 150, 150, 151, 153, 153, 155, 157, 159, 161, 164, 166, 168, 170, 172, 173, 174, 174, 175, 176, 176, 176, 177, 177, 177, 176, 175, 173, 172, 169, 167, 165, 164, 163, 161, 160, 158, 156, 154, 153, 150, 148, 145, 143, 142, 140, 139, 138, 136, 135, 133, 132, 129, 128, 126, 124, 123, 122, 121, 120, 119, 118, 116, 115, 114, 113, 112, 110, 109, 108, 107, 107, 106, 105, 105, 103, 102, 101, 100, 99, 99, 98, 98, 98, 98, 98, 97, 97, 97, 96, 95, 95, 94, 94, 94, 95, 95, 95, 95, 94, 94, 93, 93, 92, 92, 91, 91, 92, 92, 94, 94, 94, 93, 93, 92, 92, 91, 92, 92, 92, 93, 93, 93, 93, 92, 91, 91, 91, 91, 91, 92, 92, 92, 92, 91, 91, 91, 90, 91, 91, 90, 91, 91, 91, 92, 92, 91, 92, 91, 91, 90, 90, 89, 89, 90, 90, 91, 91, 91, 90, 89, 89, 89, 89, 89, 91, 90 }


no. 3600 point
