{ 32, 31, 32, 30, 29, 32, 33, 31, 31, 30, 32, 30, 32, 32, 31, 29, 30, 30, 31, 31, 30, 27, 28, 29, 31, 31, 29, 28, 29, 30, 32, 32, 32, 30, 28, 30, 32, 31, 31, 29, 29, 31, 30, 30, 28, 28, 28, 28, 28, 29, 27, 26, 27, 28, 28, 31, 30, 28, 30, 30, 32, 32, 30, 30, 30, 31, 33, 33, 34, 35, 37, 39, 41, 41, 40, 41, 40, 42, 44, 43, 44, 42, 44, 44, 45, 46, 46, 44, 46, 47, 48, 46, 46, 44, 43, 45, 46, 44, 43, 41, 43, 43, 44, 44, 43, 40, 40, 42, 43, 44, 41, 41, 41, 42, 43, 42, 41, 40, 39, 39, 41, 40, 39, 38, 38, 39, 39, 40, 39, 37, 37, 36, 35, 35, 33, 33, 35, 35, 35, 35, 35, 34, 35, 37, 37, 36, 35, 34, 34, 35, 35, 36, 35, 35, 36, 37, 37, 37, 35, 33, 33, 35, 35, 37, 36, 35, 35, 37, 37, 35, 34, 35, 36, 39, 40, 41, 41, 41, 43, 43, 46, 46, 46, 44, 46, 48, 48, 48, 48, 49, 48, 48, 49, 48, 47, 46, 47, 48, 47, 47, 45, 46, 50, 52, 52, 48, 45, 41, 41, 37, 36, 35, 33, 30, 30, 30, 34, 34, 33, 33, 33, 34, 35, 35, 35, 32, 33, 32, 33, 33, 28, 30, 30, 33, 36, 33, 31, 28, 25, 20, 18, 14, 9, 5, 4, 16, 33, 53, 75, 102, 140, 174, 195, 201, 187, 148, 95, 51, 26, 18, 19, 25, 28, 28, 28, 27, 27, 24, 26, 28, 29, 29, 28, 26, 26, 26, 28, 28, 26, 24, 24, 26, 28, 29, 28, 26, 26, 29, 28, 28, 26, 26, 26, 28, 28, 27, 27, 24, 24, 27, 28, 27, 28, 24, 25, 27, 28, 28, 28, 25, 26, 30, 29, 28, 29, 28, 29, 29, 29, 29, 27, 25, 27, 29, 30, 30, 29, 27, 27, 27, 26, 24, 25, 23, 24, 24, 25, 24, 24, 21, 22, 23, 24, 24, 23, 20, 22, 23, 23, 21, 22, 21, 22, 21, 23, 21, 21, 23, 26, 28, 32, 33, 33, 33, 36, 37, 39, 39, 39, 37, 40, 41, 44, 41, 43, 40, 42, 44, 44, 45, 42, 39, 39, 41, 39, 41, 40, 39, 39, 39, 41, 41, 38, 37, 40, 40, 39, 38, 37, 36, 36, 38, 39, 39, 37, 36, 36, 36, 37, 35, 34, 32, 33, 35, 37, 39, 38, 37, 36, 36, 36, 36, 36, 35, 35, 36, 35, 37, 35, 32, 32, 32, 35, 36, 35, 34, 33, 32, 33, 35, 34, 32, 34, 37, 39, 38, 38, 35, 35, 35, 37, 37, 35, 32, 33, 34, 36, 37, 35, 35, 37, 39, 43, 44, 41, 41, 42, 43, 46, 46, 45, 46, 48, 50, 51, 50, 48, 47, 47, 46, 46, 47, 44, 44, 43, 44, 47, 50, 50, 48, 49, 49, 47, 45, 43, 39, 35, 35, 35, 35, 33, 33, 33, 33, 33, 32, 32, 30, 30, 32, 32, 33, 32, 29, 30, 30, 31, 32, 32, 31, 31, 32, 33, 32, 29, 27, 23, 20, 18, 15, 11, 6, 6, 18, 34, 55, 76, 100, 137, 172, 195, 208, 203, 175, 126, 74, 39, 22, 16, 18, 23, 27, 28, 30, 28, 26, 26, 28, 30, 30, 28, 26, 26, 28, 28, 28, 28, 25, 26, 28, 30, 30, 29, 28, 29, 30, 30, 31, 29, 27, 26, 28, 29, 28, 28, 25, 26, 27, 28, 28, 28, 26, 26, 28, 28, 28, 28, 27, 28, 29, 31, 30, 32, 28, 28, 30, 28, 30, 28, 26, 28, 28, 30, 29, 28, 26, 28, 28, 29, 29, 28, 27, 26, 27, 28, 28, 26, 24, 24, 24, 26, 26, 24, 23, 22, 23, 23, 23, 22, 22, 23, 23, 22, 23, 23, 22, 23, 25, 27, 28, 29, 29, 31, 35, 37, 38, 37, 37, 39, 43, 45, 44, 43, 42, 43, 44, 45, 45, 44, 43, 44, 44, 46, 45, 44, 42, 44, 44, 46, 46, 46, 44, 44, 47, 46, 46, 44, 43, 44, 44, 46, 45, 45, 43, 42, 44, 43, 43, 44, 41, 41, 41, 44, 43, 41, 40, 41, 42, 43, 43, 43, 41, 41, 43, 43, 43, 43, 43, 43, 45, 46, 44, 43, 41, 42, 41, 43, 42, 41, 40, 39, 41, 42, 40, 39, 40, 41, 41, 41, 41, 39, 40, 41, 42, 44, 43, 41, 41, 40, 41, 43, 40, 40, 39, 41, 41, 43, 43, 43, 42, 43, 46, 48, 50, 50, 49, 50, 52, 53, 54, 55, 55, 57, 58, 59, 58, 56, 54, 52, 53, 54, 53, 53, 51, 51, 52, 55, 55, 57, 55, 53, 52, 51, 50, 48, 45, 44, 45, 45, 45, 44, 41, 39, 39, 42, 41, 38, 38, 37, 38, 39, 37, 39, 37, 37, 37, 39, 39, 37, 37, 39, 40, 39, 40, 38, 35, 32, 27, 23, 20, 16, 12, 15, 29, 50, 70, 94, 123, 158, 196, 222, 233, 227, 194, 133, 74, 36, 26, 29, 36, 39, 41, 41, 40, 38, 35, 36, 36, 37, 35, 34, 32, 34, 33, 35, 35, 34, 33, 33, 35, 36, 37, 35, 34, 32, 35, 36, 34, 34, 33, 33, 34, 34, 34, 34, 32, 32, 35, 36, 36, 34, 33, 33, 35, 36, 36, 35, 35, 35, 35, 35, 37, 35, 34, 34, 35, 35, 35, 33, 34, 35, 37, 38, 38, 37, 36, 36, 37, 39, 39, 39, 35, 37, 37, 37, 37, 35, 33, 33, 36, 35, 35, 32, 33, 32, 33, 36, 35, 34, 33, 34, 35, 35, 33, 34, 33, 35, 36, 39, 38, 39, 39, 41, 43, 46, 46, 46, 46, 46, 48, 51, 50, 51, 51, 51, 52, 52, 53, 53, 52, 52, 52, 53, 54, 52, 50, 50, 53, 53, 54, 53, 52, 55, 55, 58, 57, 58, 58, 59, 62, 61, 62, 61, 61, 61, 63, 64, 66, 67, 65, 66, 64, 62, 62, 60, 55, 55, 52, 52, 51, 48, 48, 46, 48, 47, 44, 44, 42, 43, 44, 45, 44, 43, 40, 41, 40, 41, 41, 39, 39, 38, 39, 42, 39, 37, 36, 37, 38, 39, 39, 39, 39, 38, 37, 36, 31, 26, 21, 15, 11, 11, 19, 35, 58, 83, 109, 139, 173, 203, 221, 227, 214, 179, 123, 68, 32, 23, 27, 34, 35, 38, 41, 40, 41, 41, 39, 39, 37, 37, 37, 39, 37, 37, 35, 35, 36, 38, 37, 35, 35, 35, 35, 34, 36, 35, 33, 33, 35, 37, 34, 35, 34, 35, 36, 37, 37, 36, 36, 36, 36, 37, 37, 37, 35, 34, 35, 36, 37, 36, 35, 35, 37, 37, 37, 37, 35, 37, 38, 39, 39, 36, 35, 36, 37, 39, 39, 38, 34, 35, 35, 35, 36, 34, 35, 33, 33, 35, 33, 33, 31, 33, 32, 36, 34, 34, 33, 33, 33, 35, 35, 35, 35, 34, 35, 37, 37, 36, 36, 34, 37, 39, 40, 39, 39, 41, 43, 44, 44, 45, 46, 46, 48, 48, 48, 48, 47, 48, 49, 52, 50, 50, 49, 48, 50, 50, 50, 48, 46, 45, 48, 48, 48, 46, 45, 44, 46, 49, 46, 46, 45, 44, 45, 46, 48, 46, 44, 44, 45, 45, 43, 43, 41, 42, 42, 44, 43, 43, 42, 42, 43, 44, 43, 43, 43, 44, 44, 47, 46, 46, 43, 44, 44, 46, 46, 44, 44, 43, 42, 43, 44, 44, 43, 44, 44, 47, 45, 45, 45, 44, 45, 46, 46, 44, 45, 46, 46, 46, 48, 46, 46, 44, 44, 47, 47, 44, 44, 44, 45, 48, 48, 46, 45, 44, 46, 46, 46, 46, 45, 44, 45, 48, 48, 48, 47, 46, 47, 49, 49, 48, 48, 46, 48, 48, 49, 48, 46, 46, 47, 48, 49, 47, 46, 44, 46, 48, 50, 48, 47, 47, 48, 50, 48, 49, 48, 46, 48, 48, 47, 48, 46, 45, 48, 50, 48, 47, 46, 47, 49, 52, 51, 51, 51, 52, 54, 57, 57, 55, 55, 55, 56, 57, 57, 58, 57, 58, 57, 61, 61, 61, 58, 56, 59, 59, 60, 57, 55, 54, 56, 61, 61, 60, 55, 53, 53, 51, 48, 48, 44, 44, 41, 44, 43, 43, 43, 41, 43, 44, 43, 41, 41, 41, 43, 43, 44, 44, 43, 41, 42, 42, 40, 37, 31, 29, 30, 29, 24, 16, 14, 23, 42, 64, 85, 114, 147, 185, 213, 222, 204, 159, 102, 53, 29, 26, 30, 35, 38, 38, 39, 41, 39, 37, 37, 37, 39, 37, 35, 34, 33, 33, 34, 36, 35, 35, 35, 37, 37, 38, 37, 37, 36, 36, 37, 39, 38, 37, 37, 37, 37, 37, 38, 37, 36, 36, 39, 39, 39, 37, 35, 34, 34, 35, 37, 33, 33, 34, 36, 37, 35, 35, 35, 35, 35, 36, 37, 36, 35, 34, 37, 39, 38, 37, 35, 35, 34, 36, 36, 35, 33, 33, 33, 34, 30, 30, 31, 30, 31, 32, 31, 30, 30, 30, 31, 33, 31, 32, 31, 28, 32, 34, 32, 34, 33, 35, 37, 40, 41, 43, 43, 43, 47, 48, 48, 48, 48, 49, 50, 52, 51, 51, 51, 49, 51, 52, 50, 50, 49, 50, 51, 52, 52, 51, 51, 52, 53, 55, 54, 52, 50, 48, 48, 49, 49, 47, 48, 47, 47, 48, 47, 48, 48, 48, 50, 49, 48, 47, 47, 48, 49, 50, 48, 46, 44, 43, 44, 44, 43, 44, 43, 42, 44, 46, 45, 41, 40, 41, 43, 41, 42, 39, 39, 38, 41, 44, 44, 45, 44, 43, 41, 43, 43, 43, 41, 41, 42, 43, 41, 43, 41, 41, 41, 43, 43, 43, 41, 39, 42, 46, 47, 48, 48, 48, 51, 53, 53, 53, 53, 53, 54, 57, 58, 58, 54, 52, 53, 53, 50, 52, 52, 53, 53, 53, 53, 55, 54, 52, 48, 48, 46, 43, 43, 40, 40, 43, 39, 41, 41, 40, 41, 42, 39, 41, 39, 37, 39, 37, 35, 35, 35, 33, 37, 37, 35, 36, 38, 35, 32, 29, 24, 22, 19, 14, 15, 27, 46, 71, 98, 135, 173, 202, 213, 196, 151, 88, 43, 25, 23, 26, 31, 33, 35, 35, 35, 36, 36, 35, 34, 35, 34, 33, 32, 33, 35, 35, 34, 32, 33, 31, 33, 35, 33, 33, 30, 30, 32, 35, 34, 32, 30, 32, 33, 35, 35, 33, 30, 30, 32, 33, 34, 33, 33, 34, 33, 35, 33, 32, 30, 30, 32, 33, 34, 33, 32, 32, 33, 34, 34, 32, 32, 32, 32, 34, 32, 30, 30, 30, 31, 31, 30, 28, 29, 28, 28, 29, 27, 26, 24, 24, 24, 24, 25, 24, 23, 24, 25, 28, 28, 27, 28, 30, 32, 35, 33, 33, 33, 34, 36, 39, 41, 41, 40, 42, 43, 47, 46, 45, 46, 44, 46, 49, 50, 48, 48, 48, 49, 51, 49, 47, 47, 46, 46, 48, 48, 48, 46, 45, 48, 49, 48, 50, 48, 48, 50, 49, 48, 48, 47, 46, 47, 48, 49, 46, 43, 43, 44, 46, 45, 47, 45, 44, 47, 47, 47, 46, 46, 44, 46, 46, 46, 45, 44, 44, 46, 47, 46, 45, 45, 44, 47, 48, 48, 47, 47, 46, 48, 50, 48, 48, 47, 47, 47, 49, 48, 46, 46, 45, 47, 48, 48, 46, 45, 45, 48, 48, 50, 48, 46, 47, 50, 51, 52, 52, 53, 53, 55, 57, 57, 59, 58, 60, 60, 62, 64, 61, 60, 58, 59, 59, 57, 59, 59, 57, 59, 60, 62, 63, 62, 59, 56, 55, 53, 49, 48, 46, 44, 46, 45, 44, 41, 44, 44, 45, 45, 43, 42, 41, 44, 44, 45, 44, 41, 42, 44, 44, 45, 43, 42, 41, 39, 35, 27, 25, 23, 21, 15, 13, 12, 18, 28, 46, 68, 95, 126, 164, 200, 227, 238, 226, 177, 108, 52, 26, 29, 39, 46, 46, 43, 41, 43, 43, 42, 42, 40, 40, 42, 43, 41, 42, 41, 40, 41, 41, 42, 39, 39, 38, 39, 40, 40, 40, 38, 37, 39, 41, 39, 39, 40, 39, 40, 41, 41, 40, 40, 41, 41, 41, 40, 39, 40, 39, 40, 41, 40, 41, 39, 40, 41, 41, 41, 41, 40, 41, 42, 41, 42, 41, 39, 39, 42, 42, 41, 40, 39, 39, 40, 41, 41, 40, 37, 37, 37, 39, 40, 38, 38, 38, 40, 39, 39, 40, 39, 36, 39, 40, 41, 41, 41, 40, 43, 46, 47, 48, 48, 50, 52, 55, 55, 57, 58, 59, 64, 67, 71, 73, 74, 73, 75, 76, 75, 76, 77, 75, 77, 77, 73, 71, 68, 66, 66, 64, 65, 63, 63, 62, 64, 61, 62, 61, 59, 58, 59, 58, 56, 55, 53, 52, 53, 52, 50, 49, 46, 47, 49, 49, 48, 47, 45, 44, 46, 46, 44, 44, 44, 43, 44, 46, 44, 44, 44, 44, 44, 46, 46, 44, 45, 41, 40, 37, 33, 29, 25, 26, 38, 62, 88, 113, 141, 173, 208, 238, 251, 255, 244, 214, 173, 124, 80, 46, 33, 34, 43, 50, 49, 45, 45, 43, 44, 46, 44, 43, 42, 41, 43, 43, 43, 41, 40, 39, 41, 44, 44, 43, 41, 41, 43, 44, 43, 43, 41, 41, 43, 44, 43, 43, 41, 41, 44, 43, 43, 43, 43, 43, 43, 44, 43, 43, 43, 43, 44, 44, 44, 43, 41, 40, 41, 43, 43, 41, 41, 41, 42, 43, 45, 41, 41, 40, 41, 40, 40, 39, 37, 37, 37, 39, 37, 37, 36, 35, 36, 37, 38, 37, 35, 37, 39, 43, 43, 42, 42, 44, 44, 46, 47, 46, 44, 44, 46, 50, 50, 48, 47, 48, 50, 51, 51, 50, 50, 50, 50, 52, 51, 51, 51, 48, 51, 52, 51, 48, 48, 48, 48, 48, 48, 48, 46, 46, 46, 48, 47, 46, 44, 44, 46, 46, 46, 46, 44, 45, 46, 47, 47, 46, 45, 46, 47, 48, 48, 47, 45, 45, 46, 46, 47, 46, 44, 44, 46, 46, 47, 46, 46, 46, 46, 48, 47, 47, 45, 45, 46, 50, 48, 49, 48, 46, 48, 50, 50, 48, 48, 45, 48, 48, 49, 48, 44, 45, 46, 48, 48, 46, 44, 46, 46, 48, 46, 47, 46, 46, 48, 49, 49, 48, 48, 46, 48, 50, 49, 48, 46, 46, 46, 48, 48, 47, 44, 44, 46, 48, 48, 47, 46, 46, 48, 49, 48, 48, 48, 47, 48, 50, 48, 50, 48, 47, 47, 48, 48, 47, 46, 44, 47, 48, 48, 48, 46, 45, 46, 47, 49, 50, 49, 48, 50, 52, 54, 55, 57, 55, 56, 56, 57, 56, 56, 57, 60, 61, 62, 61, 61, 60, 59, 61, 59, 57, 57, 56, 58, 59, 57, 57, 59, 61, 64, 62, 58, 55, 53, 51, 50, 50, 49, 48, 46, 44, 44, 46, 46, 45, 43, 44, 44, 45, 44, 44, 43, 43, 43, 44, 44, 44, 43, 42, 44, 44, 43, 42, 41, 37, 33, 29, 25, 23, 17, 15, 26, 44, 66, 86, 113, 147, 184, 214, 229, 227, 200, 146, 87, 46, 28, 30, 36, 41, 42, 41, 38, 37, 37, 37, 37, 37, 34, 35, 34, 33, 35, 36, 35, 35, 34, 34, 35, 38, 37, 35, 35, 33, 35, 36, 37, 35, 33, 33, 35, 35, 35, 35, 33, 32, 33, 33, 34, 35, 33, 34, 35, 37, 35, 34, 33, 34, 35, 37, 37, 35, 34, 35, 34, 35, 35, 35, 33, 32, 33, 34, 35, 33, 32, 33, 34, 36, 36, 37, 34, 34, 34, 35, 34, 33, 31, 32, 33, 34, 35, 32, 32, 33, 33, 35, 33, 32, 30, 31, 32, 33, 35, 35, 35, 34, 35, 37, 36, 37, 38, 37, 39, 40, 41, 43, 43, 44, 46, 47, 46, 48, 48, 48, 48, 50, 49, 48, 47, 47, 48, 47, 48, 46, 44, 44, 45, 46, 48, 48, 47, 46, 46, 49, 48, 47, 44, 46, 48, 48, 48, 46, 43, 43, 45, 46, 46, 44, 42, 42, 41, 43, 43, 41, 39, 39, 40, 43, 42, 43, 41, 39, 39, 41, 39, 41, 38, 41, 41, 42, 42, 41, 39, 39, 41, 39, 39, 37, 35, 35, 38, 38, 37, 37, 35, 35, 37, 35, 37, 36, 35, 35, 38, 38, 37, 36, 35, 35, 37, 38, 39, 38, 39, 37, 39, 38, 37, 38, 37, 39, 36, 38, 41, 41, 42, 43, 44, 44, 46, 47, 46, 46, 48, 51, 52, 51, 49, 50, 50, 50, 52, 50, 48, 46, 48, 48, 47, 48, 49, 48, 46, 46, 46, 48, 51, 51, 48, 45, 43, 41, 39, 35, 33, 34, 32, 32, 32, 31, 32, 32, 32, 32, 32, 32, 33, 35, 35, 34, 30, 29, 30, 34, 33, 32, 31, 30, 30, 30, 28, 23, 18, 14, 12, 7, 3, 0, 5, 15, 29, 43, 56, 73, 97, 128, 163, 189, 200, 192, 164, 115, 67, 35, 17, 13, 17, 22, 26, 28, 29, 28, 28, 27, 28, 30, 30, 29, 29, 27, 28, 28, 29, 30, 28, 27, 27, 27, 27, 27, 26, 25, 26, 28, 29, 30, 28, 28, 29, 29, 30, 29, 28, 25, 27, 28, 26, 25, 26, 26, 27, 28, 27, 26, 26, 26, 29, 28, 29, 28, 25, 24, 25, 26, 26, 25, 24, 23, 24, 27, 28, 28, 26, 26, 27, 28, 28, 28, 27, 26, 24, 26, 25, 24, 23, 23, 23, 24, 23, 23, 21, 19, 19, 19, 19, 19, 19, 20, 23, 23, 20, 19, 19, 19, 21, 23, 23, 24, 26, 26, 30, 34, 34, 35, 36, 35, 37, 38, 37, 37, 36, 36, 38, 39, 39, 38, 39, 38, 39, 40, 39, 40, 40, 37, 39, 38, 37, 37, 36, 33, 36, 36, 36, 38, 37, 39, 41, 40, 39, 37, 35, 33, 35, 35, 35, 35, 32, 32, 32, 33, 33, 33, 33, 32, 35, 33, 33, 31, 30, 32, 32, 33, 33, 32, 30, 30, 32, 33, 34, 34, 33, 33, 35, 37, 34, 32, 30, 30, 30, 32, 33, 31, 30, 29, 31, 32, 34, 34, 35, 34, 33, 34, 33, 35, 35, 35, 34, 33, 33, 32, 31, 31, 32, 33, 35, 34, 35, 37, 37, 39, 39, 40, 39, 40, 42, 43, 45, 47, 49, 49, 48, 47, 44, 44, 44, 43, 44, 46, 45, 42, 39, 39, 43, 46, 46, 43, 39, 37, 37, 35, 35, 32, 31, 31, 31, 32, 32, 31, 32, 32, 32, 32, 30, 30, 30, 30, 31, 32, 31, 29, 27, 26, 28, 29, 30, 27, 28, 24, 22, 18, 17, 17, 17, 16, 13, 9, 5, 1, 3, 12, 27, 43, 65, 89, 116, 151, 182, 202, 209, 196, 155, 97, 48, 23, 17, 17, 20, 23, 27, 28, 28, 28, 26, 28, 25, 28, 28, 28, 28, 28, 28, 28, 28, 26, 25, 25, 26, 27, 28, 27, 26, 26, 26, 27, 27, 27, 25, 25, 26, 27, 29, 28, 28, 28, 26, 30, 30, 30, 27, 28, 28, 29, 29, 29, 26, 25, 27, 28, 28, 28, 26, 26, 28, 28, 29, 28, 28, 28, 29, 30, 30, 28, 28, 28, 27, 28, 28, 26, 24, 24, 23, 24, 24, 22, 21, 20, 21, 20, 21, 20, 19, 17, 17, 19, 19, 20, 19, 20, 22, 23, 23, 23, 22, 21, 24, 26, 28, 28, 28, 30, 32, 35, 35, 37, 37, 38, 39, 43, 44, 43, 43, 41, 44, 44, 43, 43, 41, 41, 43, 44, 46, 43, 42, 42, 43, 44, 44, 43, 43, 43, 44, 44, 44, 44, 43, 42, 44, 44, 45, 44, 43, 43, 44, 46, 45, 45, 41, 43, 43, 42, 41, 40, 39, 40, 41, 44, 43, 42, 42, 41, 41, 43, 43, 43, 41, 40, 41, 43, 42, 43, 39, 40, 41, 43, 43, 41, 40, 40, 41, 44, 44, 43, 42, 41, 41, 43, 43, 42, 41, 41, 41, 43, 44, 43, 43, 42, 43, 44, 44, 43, 43, 42, 43, 43, 45, 46, 46, 47, 50, 52, 54, 54, 53, 52, 54, 55, 55, 56, 56, 56, 57, 59, 61, 58, 56, 55, 54, 55, 56, 56, 55, 53, 55, 59, 60, 62, 58, 54, 51, 52, 50, 48, 44, 44, 43, 44, 43, 43, 43, 42, 41, 43, 44, 42, 41, 40, 43, 41, 43, 42, 41, 41, 43, 44, 44, 43, 42, 41, 41, 41, 39, 33, 27, 22, 21, 19, 17, 25, 40, 64, 90, 118, 152, 189, 216, 235, 241, 225, 181, 114, 62, 32, 29, 36, 43, 44, 41, 41, 41, 39, 41, 39, 37, 37, 39, 39, 39, 39, 37, 36, 37, 37, 37, 36, 35, 33, 34, 35, 35, 34, 35, 33, 35, 37, 37, 37, 35, 34, 35, 37, 36, 36, 35, 33, 35, 35, 36, 34, 35, 34, 34, 35, 36, 36, 35, 34, 35, 37, 37, 36, 35, 35, 37, 39, 40, 38, 37, 35, 37, 37, 37, 35, 33, 32, 35, 34, 35, 35, 33, 32, 34, 33, 35, 33, 32, 32, 32, 33, 34, 32, 32, 32, 34, 35, 36, 36, 35, 33, 32, 36, 37, 37, 36, 39, 41, 44, 45, 45, 45, 46, 46, 50, 50, 50, 49, 50, 50, 52, 54, 52, 52, 52, 53, 54, 55, 53, 52, 52, 52, 53, 54, 53, 51, 50, 52, 53, 52, 50, 50, 51, 51, 53, 52, 52, 50, 50, 52, 53, 53, 51, 50, 49, 50, 50, 50, 49, 48, 48, 46, 50, 48, 48, 47, 47, 47, 47, 45, 46, 46, 46, 46 }



no. 3600 point