{ 111, 109, 111, 109, 109, 111, 108, 110, 111, 111, 111, 110, 110, 111, 110, 111, 110, 113, 111, 111, 110, 109, 110, 110, 111, 110, 108, 110, 109, 110, 111, 109, 112, 111, 109, 109, 112, 110, 111, 109, 110, 109, 107, 111, 111, 111, 109, 109, 112, 111, 109, 109, 110, 109, 112, 112, 110, 112, 110, 110, 110, 110, 109, 111, 110, 111, 109, 109, 110, 110, 111, 110, 108, 110, 111, 110, 109, 110, 112, 109, 111, 111, 110, 111, 111, 110, 111, 111, 110, 110, 109, 110, 111, 109, 110, 109, 107, 111, 111, 111, 109, 112, 110, 109, 109, 109, 112, 112, 112, 110, 109, 110, 111, 109, 109, 112, 109, 108, 110, 111, 110, 110, 109, 109, 110, 109, 110, 112, 111, 110, 110, 112, 110, 108, 110, 112, 110, 110, 111, 111, 109, 110, 111, 110, 109, 110, 110, 109, 110, 111, 109, 110, 110, 111, 109, 110, 111, 109, 111, 110, 108, 110, 110, 109, 110, 111, 110, 109, 110, 109, 109, 110, 112, 109, 110, 110, 109, 111, 108, 110, 111, 111, 111, 109, 111, 111, 111, 111, 111, 111, 108, 112, 109, 110, 111, 111, 110, 110, 111, 109, 111, 110, 109, 111, 111, 111, 109, 109, 110, 109, 110, 111, 110, 111, 110, 109, 110, 109, 111, 109, 109, 112, 110, 111, 109, 110, 111, 111, 108, 111, 110, 113, 109, 111, 109, 112, 110, 109, 111, 111, 111, 110, 110, 110, 110, 111, 108, 110, 110, 109, 111, 111, 109, 109, 110, 111, 109, 112, 110, 110, 111, 110, 112, 111, 111, 110, 112, 109, 110, 111, 110, 111, 109, 110, 110, 110, 110, 110, 111, 111, 110, 110, 110, 110, 111, 111, 110, 109, 112, 111, 110, 111, 110, 108, 109, 110, 111, 110, 109, 110, 113, 116, 108, 110, 110, 84, 116, 118, 75, 108, 76, 97, 80, 180, 63, 71, 71, 107, 103, 103, 93, 162, 7, 129, 134, 127, 202, 202, 11, 11, 92, 60, 138, 171, 53, 53, 122, 133, 144, 150, 147, 121, 121, 111, 110, 110, 154, 29, 40, 94, 144, 97, 135, 51, 79, 79, 146, 118, 126, 100, 105, 88, 156, 148, 92, 59, 59, 135, 92, 92, 114, 131, 112, 86, 102, 95, 118, 118, 130, 116, 104, 104, 116, 113, 82, 82, 92, 148, 93, 94, 83, 100, 111, 111, 93, 124, 124, 129, 117, 128, 128, 118, 122, 109, 124, 124, 107, 91, 135, 108, 130, 130, 86, 86, 112, 100, 113, 94, 100, 107, 107, 126, 121, 135, 109, 113, 113, 119, 104, 105, 80, 80, 110, 118, 124, 133, 73, 120, 128, 128, 109, 126, 119, 119, 83, 135, 127, 127, 137, 109, 110, 116, 107, 94, 100, 100, 113, 128, 85, 104, 78, 125, 150, 100, 126, 111, 135, 107, 154, 108, 141, 101, 114, 110, 110, 129, 105, 109, 109, 111, 114, 88, 117, 90, 101, 79, 86, 73, 116, 125, 125, 141, 120, 118, 99, 155, 99, 136, 103, 79, 122, 103, 124, 125, 93, 126, 126, 76, 112, 255, 119, 119, 135, 102, 253, 97, 255, 151, 151, 255, 252, 163, 102, 120, 88, 101, 80, 77, 127, 88, 144, 105, 99, 114, 111, 109, 104, 111, 134, 107, 101, 120, 109, 99, 99, 99, 95, 85, 99, 117, 96, 104, 112, 112, 110, 112, 110, 112, 113, 109, 110, 109, 111, 108, 108, 111, 104, 105, 110, 112, 116, 116, 114, 109, 114, 114, 111, 109, 113, 113, 109, 108, 103, 99, 112, 114, 114, 118, 109, 116, 120, 114, 111, 107, 112, 108, 108, 110, 111, 111, 111, 112, 110, 110, 109, 109, 109, 112, 109, 109, 104, 111, 109, 108, 105, 110, 110, 110, 112, 111, 111, 112, 110, 112, 112, 109, 109, 109, 109, 108, 113, 107, 114, 110, 107, 107, 93, 116, 114, 114, 116, 93, 125, 126, 108, 109, 107, 65, 128, 119, 119, 133, 128, 117, 182, 77, 79, 70, 49, 173, 155, 155, 50, 85, 113, 155, 152, 101, 177, 177, 87, 110, 138, 96, 108, 100, 100, 104, 105, 124, 131, 103, 121, 103, 94, 120, 97, 127, 127, 94, 96, 141, 96, 105, 105, 111, 103, 110, 139, 125, 101, 99, 133, 122, 68, 68, 118, 80, 105, 105, 107, 105, 105, 114, 139, 99, 103, 112, 138, 138, 116, 110, 114, 141, 129, 86, 90, 111, 101, 138, 119, 119, 85, 120, 120, 97, 124, 119, 109, 92, 105, 94, 119, 139, 136, 96, 96, 97, 86, 86, 122, 103, 110, 110, 87, 87, 105, 134, 97, 92, 119, 119, 105, 102, 85, 109, 101, 117, 108, 109, 112, 117, 96, 119, 129, 105, 105, 93, 122, 126, 113, 94, 91, 108, 136, 102, 114, 85, 96, 112, 112, 133, 97, 117, 118, 91, 116, 102, 102, 122, 129, 120, 120, 105, 65, 97, 110, 91, 137, 137, 111, 112, 83, 127, 127, 112, 117, 108, 102, 108, 105, 130, 130, 113, 127, 101, 91, 107, 126, 110, 141, 116, 120, 120, 111, 88, 119, 86, 105, 77, 77, 105, 116, 101, 101, 105, 97, 104, 126, 101, 108, 119, 113, 114, 110, 110, 110, 113, 108, 112, 111, 111, 112, 112, 110, 109, 110, 110, 111, 111, 111, 109, 110, 110, 108, 108, 111, 108, 110, 111, 110, 110, 110, 110, 111, 110, 109, 112, 109, 111, 110, 111, 109, 110, 108, 110, 111, 109, 111, 110, 109, 108, 110, 111, 112, 111, 111, 109, 109, 112, 108, 109, 110, 108, 112, 110, 110, 112, 110, 108, 110, 112, 110, 110, 109, 109, 109, 110, 111, 109, 109, 112, 110, 108, 111, 108, 109, 110, 109, 111, 109, 110, 111, 111, 109, 108, 110, 109, 111, 110, 111, 111, 111, 110, 109, 109, 110, 109, 114, 99, 110, 95, 82, 108, 119, 113, 113, 96, 94, 94, 114, 94, 99, 99, 69, 118, 118, 158, 122, 101, 125, 99, 116, 101, 113, 116, 84, 113, 96, 103, 125, 113, 108, 139, 101, 125, 125, 113, 104, 110, 100, 96, 128, 126, 95, 103, 84, 125, 122, 110, 105, 120, 119, 117, 109, 117, 104, 117, 77, 99, 119, 120, 120, 111, 113, 107, 109, 117, 109, 97, 120, 109, 103, 110, 113, 102, 105, 103, 112, 112, 111, 111, 116, 103, 107, 118, 112, 102, 110, 103, 113, 111, 122, 109, 105, 105, 117, 117, 95, 107, 112, 102, 104, 110, 125, 101, 105, 104, 105, 118, 117, 112, 103, 95, 96, 113, 110, 109, 122, 122, 109, 109, 110, 114, 117, 101, 110, 125, 108, 121, 97, 97, 111, 112, 112, 103, 105, 119, 121, 121, 108, 109, 111, 110, 105, 108, 107, 111, 114, 109, 110, 110, 111, 116, 116, 108, 111, 125, 100, 110, 110, 104, 104, 113, 112, 109, 109, 109, 113, 109, 108, 108, 114, 109, 109, 112, 111, 109, 111, 111, 108, 111, 110, 110, 108, 109, 110, 109, 111, 111, 111, 110, 110, 110, 111, 112, 111, 109, 112, 109, 108, 109, 109, 107, 107, 105, 111, 112, 108, 111, 109, 111, 114, 110, 111, 111, 111, 110, 111, 108, 109, 110, 110, 111, 110, 104, 110, 113, 111, 112, 112, 111, 110, 111, 111, 103, 110, 116, 110, 108, 108, 111, 111, 109, 113, 111, 111, 111, 110, 108, 109, 113, 111, 113, 109, 111, 109, 108, 109, 109, 111, 109, 109, 110, 111, 111, 109, 112, 110, 110, 107, 112, 111, 112, 111, 109, 110, 110, 110, 110, 108, 112, 111, 111, 111, 112, 110, 110, 110, 107, 110, 110, 109, 110, 109, 112, 110, 111, 110, 110, 111, 110, 110, 109, 109, 113, 113, 113, 109, 109, 109, 103, 110, 116, 116, 110, 116, 111, 109, 121, 116, 104, 104, 100, 110, 103, 105, 112, 120, 109, 109, 117, 112, 127, 111, 120, 93, 110, 128, 99, 112, 113, 113, 103, 100, 107, 107, 104, 104, 119, 116, 97, 107, 97, 113, 119, 113, 108, 108, 108, 112, 108, 110, 111, 120, 107, 116, 117, 102, 112, 112, 110, 109, 102, 86, 117, 128, 102, 109, 104, 101, 113, 102, 124, 109, 111, 102, 103, 122, 99, 131, 112, 112, 119, 94, 107, 105, 111, 120, 101, 101, 104, 105, 108, 108, 108, 102, 120, 117, 107, 119, 119, 108, 117, 107, 107, 104, 112, 107, 107, 118, 113, 107, 107, 107, 113, 101, 111, 112, 113, 113, 113, 105, 118, 118, 112, 116, 117, 117, 116, 107, 107, 107, 104, 110, 113, 113, 102, 109, 97, 126, 110, 110, 107, 107, 104, 108, 118, 114, 103, 105, 110, 109, 126, 126, 103, 103, 105, 112, 105, 108, 118, 103, 114, 108, 118, 112, 104, 121, 107, 107, 113, 111, 110, 111, 111, 113, 104, 103, 105, 114, 112, 112, 118, 109, 112, 104, 113, 126, 107, 122, 122, 104, 114, 114, 112, 110, 109, 109, 111, 109, 111, 107, 111, 111, 108, 111, 110, 110, 109, 110, 110, 110, 111, 109, 110, 110, 109, 111, 111, 110, 111, 111, 109, 109, 111, 111, 109, 110, 111, 110, 109, 111, 111, 109, 108, 110, 111, 110, 109, 110, 110, 111, 108, 111, 111, 111, 111, 110, 111, 110, 111, 111, 112, 110, 110, 110, 110, 112, 109, 110, 109, 109, 110, 110, 109, 110, 110, 110, 111, 110, 110, 112, 109, 112, 111, 109, 109, 110, 111, 109, 109, 112, 111, 108, 111, 112, 104, 117, 133, 120, 120, 163, 163, 29, 108, 58, 110, 144, 163, 103, 61, 61, 127, 127, 51, 99, 150, 67, 71, 131, 83, 148, 151, 141, 85, 82, 113, 203, 131, 50, 96, 44, 105, 78, 165, 57, 152, 134, 70, 90, 107, 135, 135, 136, 118, 101, 101, 69, 56, 125, 108, 128, 83, 35, 35, 153, 109, 162, 134, 91, 93, 142, 111, 118, 79, 79, 86, 86, 120, 109, 111, 97, 102, 124, 109, 110, 73, 116, 137, 124, 103, 163, 61, 61, 136, 73, 73, 85, 105, 119, 103, 142, 137, 86, 86, 126, 105, 129, 110, 87, 133, 137, 61, 102, 134, 104, 107, 107, 114, 62, 62, 105, 141, 141, 107, 85, 85, 78, 78, 143, 126, 95, 151, 137, 78, 135, 100, 142, 103, 104, 104, 113, 96, 87, 113, 108, 78, 100, 113, 70, 101, 141, 139, 99, 110, 109, 109, 144, 104, 111, 90, 109, 109, 119, 122, 109, 92, 113, 122, 110, 110, 113, 112, 110, 130, 95, 95, 110, 107, 107, 78, 102, 124, 147, 134, 88, 78, 102, 109, 117, 105, 108, 116, 110, 109, 109, 109, 110, 111, 111, 109, 109, 111, 111, 110, 109, 109, 110, 111, 109, 109, 110, 109, 111, 111, 111, 110, 110, 111, 110, 111, 110, 110, 110, 108, 110, 109, 111, 111, 111, 108, 110, 112, 111, 109, 112, 108, 108, 110, 111, 110, 110, 111, 109, 112, 108, 109, 111, 110, 111, 113, 109, 110, 110, 110, 110, 109, 111, 111, 110, 110, 112, 109, 110, 110, 109, 111, 110, 111, 110, 112, 112, 109, 111, 110, 110, 110, 110, 109, 109, 111, 111, 111, 109, 108, 111, 110, 112, 111, 105, 111, 112, 110, 111, 111, 109, 111, 110, 111, 111, 110, 111, 112, 109, 111, 109, 109, 110, 111, 109, 109, 109, 111, 111, 111, 110, 110, 111, 110, 111, 110, 110, 111, 110, 110, 109, 110, 111, 110, 112, 108, 110, 110, 111, 110, 110, 111, 111, 109, 110, 111, 110, 111, 109, 111, 113, 109, 109, 113, 111, 109, 110, 109, 110, 110, 110, 111, 112, 111, 110, 111, 112, 109, 109, 109, 110, 111, 109, 105, 110, 111, 111, 110, 111, 108, 108, 111, 110, 110, 110, 110, 108, 110, 111, 111, 111, 112, 112, 111, 108, 110, 108, 108, 110, 111, 111, 110, 110, 110, 110, 111, 110, 110, 110, 112, 110, 109, 110, 109, 111, 111, 111, 109, 110, 110, 110, 113, 111, 110, 109, 109, 111, 111, 109, 111, 110, 107, 112, 111, 110, 111, 111, 107, 110, 112, 109, 109, 112, 108, 111, 111, 110, 112, 108, 111, 110, 109, 110, 110, 109, 109, 109, 109, 110, 111, 109, 111, 112, 110, 110, 109, 108, 111, 109, 110, 105, 111, 109, 96, 108, 108, 127, 127, 79, 129, 91, 121, 87, 109, 102, 104, 129, 87, 108, 127, 107, 96, 96, 105, 119, 97, 63, 43, 99, 143, 118, 167, 88, 122, 113, 133, 134, 125, 84, 104, 110, 79, 127, 112, 139, 121, 109, 85, 105, 105, 104, 82, 104, 104, 126, 122, 111, 109, 85, 121, 114, 86, 122, 112, 124, 126, 107, 104, 130, 109, 66, 120, 141, 145, 109, 109, 109, 94, 82, 97, 97, 122, 91, 112, 117, 107, 103, 148, 108, 95, 117, 117, 111, 111, 80, 126, 95, 119, 96, 125, 117, 116, 99, 108, 97, 79, 104, 90, 133, 109, 133, 101, 117, 94, 100, 122, 119, 109, 88, 97, 107, 120, 110, 105, 84, 116, 119, 119, 119, 137, 121, 113, 86, 107, 127, 109, 131, 109, 119, 87, 102, 93, 113, 127, 117, 102, 93, 119, 108, 112, 112, 118, 110, 114, 118, 117, 117, 94, 118, 112, 114, 113, 116, 105, 108, 108, 114, 116, 108, 125, 101, 113, 113, 96, 111, 125, 104, 104, 107, 78, 122, 109, 109, 114, 109, 109, 70, 126, 118, 118, 109, 141, 107, 120, 120, 124, 120, 110, 110, 84, 113, 103, 109, 111, 109, 109, 110, 113, 109, 109, 109, 110, 110, 111, 110, 110, 110, 109, 110, 111, 110, 110, 108, 110, 110, 110, 110, 109, 111, 112, 109, 111, 111, 110, 110, 110, 110, 110, 113, 111, 110, 110, 110, 110, 109, 110, 110, 109, 110, 111, 110, 110, 111, 113, 111, 111, 110, 110, 110, 111, 110, 110, 110, 110, 110, 110, 110, 111, 110, 110, 109, 110, 107, 112, 110, 110, 109, 110, 110, 112, 112, 112, 112, 110, 111, 111, 109, 111, 111, 109, 110, 111, 110, 110, 111, 112, 110, 112, 111, 111, 109, 108, 109, 110, 110, 111, 109, 110, 110, 111, 111, 112, 108, 112, 112, 108, 110, 92, 136, 136, 158, 152, 95, 85, 170, 158, 177, 65, 76, 136, 136, 177, 143, 66, 101, 152, 113, 95, 70, 26, 129, 129, 67, 92, 124, 124, 111, 107, 97, 95, 124, 133, 142, 139, 79, 164, 164, 128, 100, 119, 119, 110, 78, 102, 111, 105, 68, 82, 99, 114, 130, 122, 117, 109, 120, 121, 88, 84, 76, 150, 90, 112, 110, 113, 112, 112, 94, 95, 95, 87, 97, 120, 130, 118, 128, 101, 105, 137, 116, 113, 107, 116, 131, 121, 109, 107, 99, 67, 117, 117, 120, 120, 114, 114, 135, 84, 118, 104, 43, 101, 113, 129, 126, 103, 99, 139, 121, 121, 136, 97, 118, 128, 128, 104, 90, 103, 130, 127, 101, 96, 133, 138, 80, 108, 109, 103, 112, 114, 101, 69, 92, 92, 103, 87, 107, 83, 134, 114, 114, 102, 137, 97, 146, 153, 153, 138, 103, 104, 111, 129, 138, 90, 96, 101, 155, 155, 95, 110, 114, 107, 92, 142, 109, 120, 86, 102, 92, 110, 105, 100, 110, 110, 134, 101, 120, 103, 100, 88, 119, 118, 108, 113, 117, 113, 114, 107, 118, 110, 110, 113, 111, 111, 108, 111, 109, 109, 109, 110, 111, 110, 108, 111, 111, 112, 110, 110, 109, 109, 110, 110, 111, 110, 110, 110, 110, 110, 111, 110, 110, 109, 110, 112, 111, 110, 111, 109, 112, 110, 112, 110, 111, 108, 110, 112, 109, 111, 111, 111, 111, 109, 111, 111, 111, 109, 112, 110, 109, 109, 109, 108, 110, 110, 109, 112, 112, 111, 110, 110, 110, 110, 110, 108, 112, 110, 111, 111, 110, 111, 109, 110, 110, 109, 111, 110, 111, 110, 110, 109, 111, 111, 110, 109, 110, 112, 110, 110, 110, 109, 109, 110, 112, 112, 110, 109, 111, 109, 110, 110, 107, 111, 110, 110, 112, 108, 108, 107, 107, 107, 127, 101, 121, 111, 124, 93, 109, 88, 96, 110, 101, 129, 99, 93, 96, 128, 103, 117, 117, 117, 108, 104, 117, 122, 121, 108, 116, 110, 134, 113, 113, 88, 96, 137, 110, 105, 112, 110, 109, 122, 116, 114, 107, 99, 120, 107, 105, 112, 117, 110, 95, 97, 103, 110, 107, 108, 108, 107, 113, 109, 114, 117, 114, 111, 110, 114, 108, 101, 105, 114, 109, 103, 100, 119, 85, 121, 114, 117, 114, 111, 111, 116, 105, 109, 126, 100, 101, 104, 114, 124, 100, 100, 110, 134, 107, 110, 108, 117, 110, 96, 105, 114, 114, 99, 107, 109, 126, 118, 108, 105, 109, 111, 108, 108, 117, 109, 109, 111, 109, 116, 109, 113, 104, 109, 107, 105, 114, 118, 118, 108, 110, 110, 108, 114, 108, 109, 107, 109, 109, 107, 110, 113, 110, 114, 114, 110, 110, 109, 102, 111, 109, 107, 112, 113, 113, 113, 107, 107, 117, 103, 105, 119, 110, 111, 108, 109, 118, 109, 109, 103, 114, 114, 108, 114, 107, 113, 105, 105, 114, 117, 104, 104, 108, 112, 110, 110, 110, 108, 109, 109, 113, 104, 104, 116, 111, 113, 110, 105, 113, 108, 111, 109, 113, 111, 110, 110, 110, 110, 111, 110, 110, 110, 111, 111, 111, 111, 111, 108, 110, 111, 111, 111, 108, 110, 111, 110, 107, 110, 111, 110, 110, 110, 111, 110, 110, 109, 111, 110, 111, 111, 110, 109, 108, 110, 109, 110, 111, 111, 111, 111, 110, 110, 112, 110, 111, 111, 109, 111, 110, 109, 110, 110, 111, 111, 111, 110, 112, 108, 110, 109, 111, 109, 110, 110, 110, 111, 109, 111, 110, 109, 110, 109, 111, 113, 110, 108, 109, 109, 111, 111, 109, 111, 110, 112, 111, 109, 109, 110, 109, 111, 110, 110, 109, 109, 108, 111, 113, 113, 110, 95, 114, 105, 121, 117, 94, 113, 117, 102, 119, 108, 117, 99, 99, 114, 114, 104, 104, 109, 103, 112, 120, 113, 114, 114, 107, 102, 117, 117, 114, 113, 102, 100, 100, 91, 109, 109, 109, 117, 104, 108, 111, 116, 116, 109, 111, 107, 112, 114, 110, 110, 104, 97, 114, 111, 112, 113, 113, 107, 107, 113, 104, 111, 116, 109, 111, 116, 103, 107, 114, 114, 114, 103, 110, 97, 111, 111, 112, 110, 110, 117, 110, 114, 110, 109, 108, 105, 110, 110, 110, 105, 112, 112, 100, 112, 104, 104, 108, 108, 112, 112, 110, 112, 119, 103, 103, 109, 110, 107, 110, 109, 109, 110, 110, 107, 122, 120, 117, 110, 110, 109, 109, 105, 110, 102, 112, 105, 110, 101, 119, 111, 109, 110, 101, 107, 107, 113, 116, 112, 108, 109, 113, 107, 111, 111, 109, 117, 112, 119, 119, 112, 103, 105, 109, 109, 108, 112, 112, 105, 110, 110, 117, 110, 110, 112, 112, 118, 111, 102, 110, 104, 114, 105, 108, 111, 113, 107, 113, 109, 111, 104, 111, 112, 111, 107, 109, 109, 116, 111, 107, 116, 109, 107, 108, 116, 116, 113, 109, 110, 112, 111, 110, 110, 110, 110, 108, 112, 109, 109, 109, 110, 109, 110, 110, 109, 109, 109, 108, 111, 108, 112, 111, 111, 108, 108, 111, 111, 111, 111, 108, 111, 110, 110, 110, 110, 109, 109, 111, 110, 110, 110, 109, 112, 112, 109, 109, 111, 108, 111, 111, 111, 111, 109, 109, 109, 110, 109, 110, 109, 109, 111, 110, 110, 110, 111, 111, 111, 109, 111, 109, 110, 109, 112, 113, 113, 110, 110, 111, 111, 110, 110, 109, 112, 109, 111, 110, 110, 109, 109, 112, 112, 110, 110, 110, 108, 111, 103, 100, 218, 99, 97, 80, 58, 26, 99, 151, 113, 154, 173, 173, 193, 108, 156, 67, 108, 120, 75, 131, 121, 112, 162, 117, 117, 173, 165, 121, 121, 153, 122, 86, 118, 118, 159, 49, 49, 131, 119, 113, 59, 59, 78, 114, 133, 133, 172, 130, 105, 122, 41, 0, 0, 198, 144, 2, 88, 153, 162, 135, 135, 121, 168, 108, 108, 93, 120, 109, 125, 88, 111, 91, 122, 60, 99, 66, 66, 77, 131, 131, 101, 172, 134, 114, 60, 34, 84, 135, 130, 136, 97, 71, 79, 122, 162, 155, 155, 84, 84, 108, 121, 134, 50, 99, 96, 147, 119, 131, 88, 88, 100, 116, 120, 120, 87, 137, 40, 117, 95, 116, 117, 96, 96, 102, 117, 116, 104, 86, 93, 158, 94, 131, 131, 113, 128, 127, 74, 119, 58, 130, 117, 84, 109, 93, 90, 90, 125, 125, 103, 133, 126, 105, 118, 113, 94, 117, 117, 119, 110, 118, 118, 96, 107, 93, 107, 112, 133, 77, 114, 124, 105, 82, 120, 121, 112, 56, 124, 105, 116, 100, 93, 120, 130, 114, 126, 102, 144, 99, 104, 122, 101, 101, 99, 113, 107, 63, 117, 117, 110, 113, 113, 121, 117, 111, 129, 102, 99, 109, 108, 111, 112, 114, 112, 111, 110, 111, 110, 110, 108, 110, 110, 111, 111, 109, 108, 110, 110, 110, 110, 111, 110, 110, 110, 109, 109, 110, 110, 110, 110, 109, 111, 110, 111, 112, 111, 112, 112, 112, 112, 110, 110, 109, 111, 111, 111, 111, 111, 108, 111, 111 }


no.3511 point