{ 114, 112, 111, 105, 105, 114, 116, 115, 114, 111, 110, 114, 111, 117, 112, 114, 111, 116, 118, 118, 112, 114, 112, 110, 112, 112, 108, 106, 115, 114, 114, 111, 110, 107, 118, 112, 116, 112, 108, 112, 114, 112, 110, 116, 109, 112, 112, 115, 114, 112, 115, 115, 115, 115, 115, 115, 112, 111, 112, 114, 112, 112, 111, 114, 114, 111, 116, 116, 112, 110, 115, 112, 115, 116, 109, 115, 114, 110, 114, 117, 111, 114, 109, 112, 111, 114, 114, 112, 114, 111, 112, 114, 112, 111, 116, 111, 110, 111, 114, 116, 115, 112, 114, 111, 111, 108, 112, 115, 115, 112, 111, 115, 112, 109, 114, 116, 102, 117, 111, 114, 107, 114, 109, 110, 108, 119, 110, 114, 114, 111, 107, 110, 114, 115, 110, 114, 108, 114, 116, 115, 112, 117, 112, 108, 114, 114, 110, 109, 114, 117, 111, 116, 112, 112, 107, 112, 111, 114, 116, 115, 114, 116, 111, 112, 111, 109, 111, 110, 115, 112, 112, 109, 109, 112, 110, 110, 114, 115, 112, 111, 119, 111, 112, 110, 112, 112, 111, 116, 111, 114, 110, 117, 111, 112, 111, 116, 112, 112, 111, 115, 112, 111, 115, 112, 111, 114, 111, 110, 116, 110, 115, 109, 114, 112, 121, 114, 115, 108, 115, 109, 112, 107, 115, 112, 116, 112, 111, 111, 109, 115, 111, 111, 110, 110, 115, 120, 111, 110, 114, 112, 107, 112, 112, 114, 114, 116, 110, 115, 110, 116, 114, 109, 112, 116, 111, 116, 115, 115, 111, 114, 110, 116, 109, 117, 111, 111, 118, 112, 110, 115, 107, 115, 104, 115, 116, 116, 112, 114, 110, 116, 116, 114, 111, 110, 114, 115, 112, 109, 114, 114, 112, 111, 116, 112, 112, 111, 112, 116, 111, 111, 110, 116, 119, 104, 104, 114, 124, 118, 101, 108, 107, 112, 97, 154, 117, 86, 86, 104, 104, 121, 94, 122, 80, 112, 125, 145, 125, 125, 118, 118, 105, 102, 124, 134, 104, 104, 114, 95, 92, 130, 140, 99, 99, 118, 96, 96, 90, 116, 122, 91, 112, 90, 153, 118, 119, 119, 130, 115, 98, 102, 105, 97, 114, 138, 112, 116, 116, 112, 81, 81, 133, 129, 112, 98, 105, 102, 137, 137, 129, 133, 120, 120, 102, 104, 81, 81, 124, 108, 122, 84, 115, 97, 157, 85, 126, 140, 140, 116, 98, 130, 130, 119, 91, 120, 106, 106, 99, 108, 106, 109, 120, 120, 89, 89, 102, 109, 101, 105, 73, 121, 121, 111, 144, 141, 127, 112, 112, 127, 112, 116, 129, 129, 121, 101, 112, 122, 86, 108, 92, 92, 108, 118, 130, 130, 111, 118, 127, 127, 117, 114, 112, 121, 104, 119, 98, 98, 137, 117, 131, 104, 126, 88, 124, 131, 114, 80, 110, 119, 133, 109, 116, 105, 117, 107, 107, 101, 117, 108, 116, 109, 109, 121, 99, 109, 114, 121, 111, 112, 124, 114, 114, 76, 120, 91, 124, 143, 145, 117, 101, 91, 120, 127, 111, 114, 121, 125, 125, 101, 117, 249, 98, 98, 119, 106, 255, 71, 246, 110, 110, 255, 252, 125, 116, 116, 104, 117, 116, 114, 112, 109, 117, 110, 111, 111, 111, 111, 116, 112, 107, 107, 112, 114, 115, 115, 115, 115, 115, 117, 110, 114, 114, 112, 115, 110, 111, 114, 109, 114, 115, 109, 116, 107, 114, 107, 108, 112, 114, 105, 114, 116, 115, 110, 110, 112, 115, 115, 109, 110, 110, 110, 110, 116, 108, 115, 115, 112, 112, 117, 114, 117, 114, 114, 112, 114, 121, 111, 115, 110, 108, 108, 108, 112, 116, 109, 111, 111, 110, 112, 112, 112, 114, 111, 119, 111, 112, 114, 114, 116, 114, 110, 110, 110, 114, 109, 109, 115, 116, 116, 114, 108, 114, 110, 117, 114, 116, 116, 108, 116, 114, 109, 116, 112, 109, 114, 110, 116, 109, 106, 120, 118, 118, 126, 115, 51, 147, 184, 0, 143, 138, 204, 109, 109, 121, 157, 141, 156, 76, 89, 115, 115, 105, 117, 92, 136, 101, 84, 84, 111, 97, 99, 130, 122, 138, 136, 84, 92, 105, 133, 133, 122, 92, 126, 112, 145, 108, 136, 98, 107, 129, 124, 130, 98, 117, 101, 50, 50, 127, 112, 70, 70, 135, 134, 134, 120, 125, 117, 94, 122, 111, 111, 149, 128, 112, 80, 117, 153, 89, 107, 90, 110, 147, 147, 105, 109, 109, 116, 121, 88, 105, 75, 128, 77, 125, 107, 134, 107, 107, 112, 105, 105, 136, 121, 101, 101, 127, 122, 111, 107, 89, 79, 100, 109, 109, 95, 119, 81, 112, 91, 120, 119, 157, 130, 118, 109, 125, 146, 146, 114, 137, 101, 121, 105, 84, 110, 120, 108, 120, 91, 101, 112, 112, 126, 114, 110, 128, 140, 120, 100, 84, 115, 98, 108, 108, 108, 112, 98, 112, 118, 148, 148, 120, 84, 109, 124, 124, 131, 102, 110, 112, 98, 114, 116, 116, 77, 121, 121, 120, 134, 145, 135, 154, 121, 100, 100, 115, 96, 90, 115, 109, 110, 110, 107, 139, 109, 109, 111, 90, 155, 58, 99, 133, 126, 116, 134, 112, 112, 111, 111, 109, 114, 116, 116, 112, 112, 110, 112, 117, 109, 114, 112, 114, 115, 114, 110, 115, 109, 114, 115, 107, 114, 108, 112, 115, 111, 112, 112, 109, 120, 112, 117, 111, 116, 106, 115, 114, 107, 117, 115, 116, 112, 106, 111, 115, 112, 114, 112, 115, 109, 116, 110, 111, 120, 110, 109, 116, 115, 112, 116, 114, 109, 114, 111, 112, 112, 112, 112, 112, 111, 117, 108, 108, 111, 120, 112, 115, 109, 116, 108, 111, 112, 107, 112, 111, 110, 102, 114, 100, 114, 109, 116, 115, 111, 114, 114, 109, 112, 112, 110, 112, 107, 109, 100, 91, 114, 127, 112, 114, 111, 88, 88, 106, 92, 100, 100, 78, 109, 109, 158, 136, 101, 139, 115, 124, 106, 117, 109, 92, 119, 91, 118, 124, 94, 110, 136, 109, 108, 108, 105, 112, 121, 81, 108, 111, 112, 107, 112, 110, 109, 140, 109, 99, 118, 112, 117, 117, 116, 114, 109, 101, 102, 114, 116, 119, 120, 104, 112, 122, 118, 125, 114, 106, 112, 105, 111, 114, 108, 111, 107, 122, 118, 117, 117, 120, 106, 115, 109, 121, 112, 98, 116, 112, 116, 124, 107, 98, 112, 120, 114, 102, 118, 126, 108, 115, 117, 110, 105, 110, 115, 110, 101, 108, 130, 108, 111, 117, 108, 106, 116, 115, 115, 111, 111, 108, 118, 110, 89, 114, 125, 110, 110, 114, 114, 118, 120, 120, 116, 108, 110, 116, 116, 106, 108, 111, 127, 115, 109, 112, 110, 110, 102, 119, 116, 106, 109, 109, 108, 101, 115, 104, 116, 116, 110, 110, 117, 124, 117, 117, 108, 116, 107, 111, 111, 120, 110, 110, 114, 116, 112, 109, 109, 108, 115, 112, 111, 110, 111, 111, 115, 114, 114, 115, 107, 111, 111, 111, 109, 111, 111, 111, 114, 112, 109, 114, 110, 110, 107, 112, 114, 114, 111, 111, 117, 105, 116, 111, 111, 116, 114, 115, 114, 105, 112, 115, 114, 115, 111, 108, 112, 114, 114, 114, 110, 115, 114, 105, 116, 112, 109, 115, 112, 112, 108, 108, 112, 112, 112, 112, 110, 118, 114, 114, 114, 112, 111, 114, 116, 114, 110, 111, 111, 125, 114, 114, 114, 116, 111, 118, 111, 112, 112, 109, 114, 114, 111, 110, 111, 115, 107, 110, 110, 114, 112, 116, 112, 110, 110, 114, 114, 111, 109, 117, 117, 106, 112, 111, 112, 110, 114, 112, 112, 114, 111, 111, 112, 106, 115, 115, 115, 118, 112, 112, 101, 112, 96, 96, 115, 126, 80, 122, 95, 101, 108, 122, 97, 126, 118, 76, 109, 161, 125, 125, 111, 101, 149, 124, 126, 84, 95, 105, 101, 102, 146, 146, 107, 90, 105, 105, 133, 133, 100, 71, 96, 139, 110, 133, 125, 84, 121, 120, 120, 125, 106, 86, 79, 136, 112, 144, 138, 96, 120, 116, 98, 119, 125, 110, 127, 125, 82, 118, 96, 98, 109, 102, 131, 120, 121, 118, 95, 128, 114, 127, 89, 89, 139, 88, 98, 118, 107, 115, 116, 116, 105, 128, 125, 125, 147, 84, 138, 96, 81, 130, 130, 115, 127, 115, 115, 111, 107, 91, 91, 120, 121, 98, 98, 129, 141, 97, 110, 118, 133, 133, 115, 96, 114, 114, 106, 127, 109, 109, 116, 101, 106, 84, 128, 102, 122, 122, 94, 111, 112, 125, 95, 124, 105, 105, 89, 128, 108, 127, 110, 106, 107, 112, 109, 109, 129, 129, 115, 100, 108, 108, 136, 109, 130, 108, 117, 114, 77, 124, 116, 120, 122, 102, 107, 109, 116, 109, 102, 116, 115, 114, 114, 117, 109, 114, 117, 116, 115, 111, 111, 115, 115, 114, 110, 110, 114, 111, 111, 116, 110, 109, 109, 109, 107, 117, 109, 112, 110, 115, 111, 114, 109, 116, 111, 111, 115, 114, 112, 115, 116, 112, 111, 111, 114, 110, 116, 116, 108, 115, 115, 115, 114, 110, 114, 114, 109, 114, 115, 114, 112, 114, 114, 110, 109, 111, 114, 110, 109, 111, 117, 109, 114, 109, 117, 112, 112, 116, 116, 115, 114, 106, 112, 111, 111, 114, 115, 111, 115, 109, 114, 115, 110, 116, 112, 115, 110, 114, 112, 114, 111, 111, 117, 110, 112, 111, 112, 112, 114, 114, 110, 114, 115, 120, 102, 109, 100, 33, 118, 195, 127, 144, 121, 121, 121, 121, 96, 102, 36, 126, 128, 158, 96, 161, 126, 116, 95, 68, 112, 136, 117, 117, 117, 133, 108, 91, 95, 134, 79, 108, 81, 119, 136, 127, 127, 118, 117, 126, 126, 127, 88, 134, 77, 138, 75, 92, 92, 151, 136, 100, 126, 158, 110, 161, 76, 116, 43, 121, 134, 134, 122, 94, 95, 119, 104, 125, 116, 105, 120, 108, 129, 126, 102, 110, 112, 112, 110, 99, 99, 109, 125, 122, 98, 143, 94, 106, 106, 122, 102, 116, 128, 89, 116, 119, 97, 71, 110, 114, 96, 96, 147, 69, 69, 124, 143, 143, 120, 119, 119, 112, 112, 102, 107, 134, 130, 136, 70, 108, 114, 107, 126, 136, 136, 102, 110, 107, 117, 104, 107, 86, 119, 85, 122, 133, 121, 129, 116, 140, 140, 102, 117, 115, 112, 104, 104, 118, 115, 109, 111, 115, 137, 108, 108, 114, 109, 115, 115, 120, 120, 107, 110, 110, 90, 111, 124, 118, 110, 122, 112, 110, 108, 110, 114, 108, 112, 114, 115, 115, 115, 114, 109, 118, 118, 118, 112, 111, 114, 112, 109, 116, 112, 114, 115, 114, 114, 114, 116, 110, 111, 111, 115, 116, 115, 108, 112, 110, 104, 115, 112, 115, 115, 114, 116, 109, 101, 119, 114, 116, 109, 109, 111, 116, 119, 112, 115, 110, 115, 106, 109, 112, 112, 115, 112, 109, 119, 114, 109, 114, 112, 106, 116, 108, 108, 111, 110, 114, 110, 116, 112, 107, 112, 106, 115, 115, 117, 115, 114, 114, 116, 116, 105, 105, 117, 110, 110, 107, 112, 112, 112, 116, 111, 110, 112, 114, 112, 118, 114, 105, 114, 114, 111, 120, 115, 112, 112, 111, 116, 110, 110, 115, 110, 114, 114, 112, 115, 114, 117, 114, 110, 111, 112, 110, 112, 112, 110, 114, 106, 111, 112, 114, 115, 112, 107, 110, 116, 116, 116, 114, 112, 112, 111, 115, 118, 111, 111, 117, 114, 107, 112, 114, 117, 112, 109, 110, 111, 114, 108, 108, 106, 118, 114, 112, 111, 118, 109, 115, 115, 111, 107, 117, 110, 116, 115, 112, 114, 111, 107, 107, 112, 120, 115, 111, 108, 107, 118, 110, 114, 114, 114, 114, 116, 112, 111, 110, 108, 116, 112, 112, 114, 114, 116, 116, 107, 111, 119, 119, 110, 109, 115, 106, 116, 115, 108, 114, 111, 118, 111, 111, 119, 109, 120, 116, 116, 117, 110, 110, 112, 127, 111, 116, 109, 111, 111, 111, 115, 109, 112, 111, 112, 114, 112, 117, 110, 105, 125, 109, 108, 112, 115, 115, 115, 115, 110, 114, 114, 109, 114, 116, 114, 115, 112, 112, 112, 111, 110, 110, 115, 109, 112, 109, 107, 118, 108, 124, 124, 101, 133, 101, 126, 106, 102, 114, 94, 105, 125, 100, 110, 138, 80, 80, 114, 126, 84, 86, 114, 107, 112, 101, 141, 85, 128, 110, 112, 118, 99, 109, 128, 102, 105, 111, 120, 126, 92, 119, 107, 121, 121, 124, 95, 107, 107, 106, 117, 102, 105, 107, 115, 118, 121, 115, 118, 131, 122, 112, 118, 120, 111, 115, 85, 128, 120, 110, 107, 107, 126, 114, 102, 102, 100, 110, 114, 112, 115, 101, 121, 110, 118, 119, 119, 112, 112, 114, 120, 100, 109, 105, 122, 126, 124, 111, 100, 105, 114, 111, 108, 118, 109, 126, 112, 110, 116, 120, 126, 94, 116, 124, 125, 105, 116, 101, 106, 128, 135, 114, 115, 105, 107, 108, 111, 110, 106, 109, 137, 108, 120, 116, 106, 92, 125, 126, 119, 140, 77, 107, 105, 114, 109, 110, 127, 104, 119, 135, 114, 114, 116, 116, 114, 107, 110, 120, 108, 111, 109, 102, 119, 120, 126, 92, 111, 111, 116, 114, 109, 120, 116, 108, 112, 109, 114, 110, 117, 111, 111, 111, 110, 114, 114, 112, 111, 112, 110, 110, 111, 114, 111, 111, 114, 111, 115, 111, 115, 110, 110, 109, 115, 116, 116, 114, 111, 111, 109, 111, 108, 108, 110, 114, 115, 115, 115, 115, 110, 111, 115, 115, 110, 111, 118, 112, 114, 111, 108, 111, 114, 114, 115, 111, 116, 112, 109, 116, 115, 115, 110, 115, 109, 112, 112, 114, 121, 112, 110, 108, 108, 111, 110, 114, 118, 112, 110, 112, 112, 111, 115, 106, 110, 112, 112, 115, 111, 110, 116, 114, 114, 110, 106, 106, 115, 115, 117, 117, 112, 115, 110, 111, 110, 115, 110, 111, 108, 119, 112, 106, 115, 114, 111, 110, 112, 116, 114, 114, 112, 112, 107, 114, 111, 111, 110, 110, 111, 105, 117, 115, 109, 110, 111, 116, 116, 116, 124, 115, 119, 156, 33, 75, 70, 125, 43, 43, 110, 194, 87, 70, 119, 155, 69, 60, 95, 65, 65, 171, 148, 189, 189, 100, 107, 100, 100, 96, 133, 137, 112, 90, 178, 178, 118, 135, 159, 115, 72, 126, 58, 91, 180, 136, 88, 138, 65, 144, 47, 145, 84, 139, 101, 91, 106, 76, 147, 89, 115, 109, 59, 122, 122, 71, 145, 70, 105, 84, 127, 75, 127, 143, 131, 112, 119, 121, 127, 105, 76, 130, 143, 80, 108, 140, 117, 50, 50, 77, 77, 26, 26, 129, 104, 143, 105, 72, 145, 125, 131, 122, 89, 107, 117, 95, 95, 125, 124, 67, 145, 145, 102, 133, 95, 128, 128, 119, 117, 131, 177, 108, 67, 134, 67, 92, 95, 130, 111, 143, 143, 114, 116, 97, 71, 114, 136, 159, 89, 135, 115, 118, 118, 118, 127, 147, 99, 104, 126, 118, 106, 106, 145, 99, 99, 111, 122, 135, 156, 104, 108, 145, 97, 91, 117, 111, 67, 109, 114, 116, 116, 130, 136, 115, 81, 82, 112, 138, 112, 92, 118, 115, 110, 125, 106, 124, 102, 111, 121, 110, 109, 112, 114, 110, 110, 114, 115, 116, 112, 105, 112, 109, 117, 112, 112, 114, 114, 111, 116, 111, 111, 114, 110, 110, 114, 112, 115, 116, 110, 117, 116, 109, 114, 112, 115, 122, 112, 110, 109, 108, 115, 101, 117, 110, 118, 114, 114, 114, 114, 108, 108, 115, 114, 110, 121, 112, 109, 118, 110, 108, 115, 114, 109, 117, 112, 114, 114, 117, 109, 116, 110, 112, 112, 114, 111, 116, 114, 117, 107, 107, 114, 109, 111, 112, 111, 112, 112, 115, 115, 111, 111, 111, 115, 114, 111, 111, 116, 111, 116, 118, 109, 111, 109, 110, 114, 112, 110, 114, 114, 109, 109, 116, 110, 110, 114, 111, 107, 134, 108, 127, 109, 127, 97, 116, 99, 97, 135, 82, 122, 111, 98, 60, 117, 85, 122, 118, 118, 130, 115, 106, 111, 122, 111, 126, 116, 117, 96, 137, 101, 124, 127, 124, 96, 127, 108, 105, 118, 90, 117, 117, 101, 109, 114, 119, 116, 131, 108, 105, 95, 112, 115, 117, 128, 112, 71, 128, 121, 108, 121, 119, 120, 112, 111, 102, 112, 106, 111, 119, 112, 101, 126, 96, 116, 111, 122, 122, 106, 105, 124, 111, 92, 131, 90, 109, 105, 128, 119, 107, 107, 119, 139, 112, 111, 109, 125, 127, 106, 104, 118, 118, 107, 109, 117, 117, 117, 117, 99, 108, 109, 117, 117, 117, 117, 115, 106, 105, 107, 112, 117, 92, 125, 91, 107, 119, 124, 124, 117, 107, 107, 120, 109, 109, 109, 102, 118, 118, 112, 119, 109, 106, 122, 122, 121, 121, 102, 101, 114, 97, 106, 116, 114, 125, 125, 115, 115, 117, 104, 135, 125, 117, 95, 116, 115, 131, 120, 120, 105, 99, 116, 117, 112, 118, 118, 120, 114, 115, 114, 108, 108, 108, 117, 109, 111, 111, 112, 115, 111, 108, 110, 110, 115, 111, 116, 111, 112, 110, 111, 116, 110, 116, 112, 112, 112, 114, 111, 110, 112, 110, 111, 110, 114, 114, 114, 114, 111, 111, 116, 106, 106, 109, 111, 117, 114, 111, 115, 112, 110, 114, 117, 108, 115, 115, 112, 111, 115, 114, 115, 109, 116, 114, 112, 112, 114, 111, 114, 112, 112, 108, 112, 109, 116, 108, 115, 111, 114, 108, 115, 116, 116, 112, 111, 111, 109, 114, 112, 117, 111, 111, 110, 110, 110, 114, 109, 118, 112, 106, 116, 114, 114, 110, 112, 114, 110, 114, 114, 114, 114, 111, 114, 114, 114, 112, 112, 114, 111, 109, 112, 109, 114, 109, 109, 119, 119, 104, 104, 129, 84, 110, 120, 165, 116, 111, 115, 112, 85, 104, 80, 166, 105, 105, 108, 117, 68, 68, 116, 116, 86, 134, 119, 158, 119, 97, 117, 89, 89, 115, 147, 114, 96, 88, 105, 105, 105, 118, 109, 114, 109, 108, 117, 130, 108, 99, 90, 127, 112, 127, 100, 95, 107, 99, 120, 115, 100, 100, 110, 110, 134, 94, 118, 117, 89, 131, 140, 107, 112, 121, 121, 133, 92, 110, 95, 95, 95, 121, 126, 117, 111, 108, 104, 122, 110, 108, 116, 118, 118, 119, 108, 120, 120, 88, 112, 116, 116, 119, 107, 115, 108, 108, 121, 128, 98, 98, 128, 124, 107, 104, 119, 112, 107, 112, 92, 118, 121, 144, 99, 104, 111, 97, 109, 107, 91, 134, 108, 118, 90, 111, 101, 100, 101, 117, 124, 124, 120, 128, 111, 91, 119, 111, 115, 112, 124, 105, 130, 105, 110, 110, 111, 94, 121, 110, 117, 120, 108, 114, 108, 104, 116, 110, 120, 116, 121, 121, 116, 120, 94, 97, 101, 107, 116, 108, 114, 122, 118, 109, 107, 120, 95, 102, 116, 117, 108, 117, 116, 116, 114, 101, 119, 112, 114, 110, 115, 114, 115, 115, 111, 111, 115, 111, 115, 114, 115, 107, 112, 110, 110, 108, 111, 114, 114, 114, 111, 111, 116, 110, 115, 111, 112, 109, 112, 106, 106, 109, 115, 108, 111, 111, 116, 108, 106, 117, 112, 114, 115, 111, 119, 119, 106, 105, 117, 117, 111, 112, 112, 115, 112, 112, 118, 109, 116, 110, 110, 111, 114, 112, 108, 111, 114, 114, 112, 116, 105, 117, 116, 112, 112, 111, 106, 117, 116, 117, 117, 115, 111, 117, 114, 114, 107, 112, 117, 116, 108, 116, 116, 101, 106, 118, 118, 111, 112, 115, 112, 114, 112, 114, 117, 101, 145, 52, 100, 98, 107, 161, 120, 116, 136, 136, 153, 125, 89, 112, 124, 120, 107, 89, 173, 107, 166, 86, 86, 104, 125, 133, 133, 100, 40, 80, 90, 90, 67, 143, 143, 138, 96, 121, 52, 52, 114, 126, 120, 120, 119, 71, 133, 88, 137, 77, 77, 151, 133, 117, 108, 85, 101, 96, 96, 159, 55, 117, 117, 139, 40, 141, 160, 146, 87, 143, 95, 126, 136, 90, 90, 156, 112, 112, 128, 156, 111, 112, 71, 110, 119, 100, 126, 124, 122, 126, 96, 101, 82, 125, 125, 108, 108, 129, 109, 148, 135, 100, 119, 126, 101, 111, 116, 116, 133, 121, 108, 105, 99, 118, 87, 114, 121, 110, 122, 112, 112, 100, 109, 90, 130, 81, 156, 124, 105, 108, 108, 130, 131, 115, 70, 109, 86, 110, 125, 98, 107, 104, 94, 94, 104, 104, 125, 129, 108, 109, 106, 109, 112, 111, 110, 140, 114, 95, 95, 81, 141, 88, 106, 107, 114, 101, 125, 118, 101, 116, 79, 99, 124, 110, 97, 87, 96, 125, 90, 129, 126, 143, 111, 111, 96, 97, 98, 115, 122, 122, 110, 111, 127, 104, 120, 112, 110, 94, 94, 110, 118, 109, 126, 119, 102, 112, 121, 115, 117, 111, 118, 111, 114, 115, 112, 112, 109, 114, 114, 116, 117, 112, 110, 114, 114, 116, 110, 112, 115, 115, 110, 115, 115, 111, 111, 119, 115, 109, 112, 105, 114, 115, 117, 112, 108, 110, 110, 111, 111, 112, 111, 117, 110, 110, 109, 115, 117, 112 }



no. 3511 point
