{ 110, 107, 109, 108, 108, 110, 109, 109, 108, 109, 109, 109, 109, 109, 110, 109, 109, 109, 107, 107, 110, 108, 109, 110, 108, 110, 110, 109, 112, 110, 110, 108, 109, 107, 108, 110, 108, 110, 108, 108, 109, 109, 110, 109, 109, 108, 110, 109, 108, 110, 108, 108, 110, 110, 110, 108, 109, 109, 108, 109, 112, 109, 110, 109, 108, 113, 109, 109, 107, 110, 109, 108, 108, 109, 110, 109, 109, 108, 108, 112, 108, 110, 109, 109, 109, 110, 109, 107, 109, 108, 109, 109, 110, 109, 109, 112, 108, 108, 112, 110, 108, 109, 110, 109, 110, 108, 110, 108, 110, 108, 109, 107, 110, 110, 109, 108, 109, 112, 108, 109, 109, 109, 112, 107, 109, 107, 109, 109, 109, 112, 109, 109, 109, 110, 109, 109, 109, 110, 110, 112, 108, 108, 109, 108, 110, 109, 109, 109, 108, 107, 109, 109, 108, 109, 108, 110, 110, 109, 110, 110, 109, 112, 108, 110, 110, 110, 110, 108, 109, 110, 110, 110, 110, 109, 112, 108, 108, 112, 110, 106, 109, 108, 110, 110, 110, 110, 109, 109, 109, 109, 109, 109, 108, 107, 110, 110, 110, 109, 112, 109, 108, 107, 109, 107, 110, 109, 110, 109, 109, 109, 108, 108, 110, 113, 107, 108, 109, 112, 109, 108, 110, 108, 109, 112, 109, 109, 109, 108, 106, 109, 109, 106, 110, 110, 108, 110, 109, 110, 109, 110, 109, 109, 109, 110, 109, 112, 110, 109, 109, 109, 108, 107, 107, 109, 110, 109, 109, 113, 107, 110, 110, 110, 109, 108, 108, 112, 107, 110, 110, 109, 112, 110, 107, 112, 110, 110, 108, 108, 109, 108, 112, 108, 108, 109, 110, 108, 110, 108, 112, 110, 108, 108, 107, 109, 108, 110, 109, 112, 106, 107, 115, 147, 106, 145, 145, 67, 164, 112, 66, 75, 132, 65, 91, 112, 38, 148, 148, 118, 81, 143, 109, 117, 27, 55, 219, 105, 153, 153, 51, 51, 107, 63, 115, 125, 79, 79, 113, 69, 40, 156, 66, 112, 112, 131, 68, 68, 84, 163, 18, 67, 124, 131, 118, 161, 75, 75, 134, 82, 113, 110, 101, 97, 89, 180, 71, 131, 131, 125, 93, 93, 108, 114, 106, 98, 137, 65, 64, 64, 124, 143, 116, 116, 39, 105, 104, 104, 96, 135, 122, 126, 126, 143, 109, 128, 89, 120, 120, 100, 93, 116, 116, 130, 97, 84, 72, 72, 115, 94, 85, 90, 108, 108, 113, 113, 65, 109, 106, 102, 39, 98, 98, 112, 110, 128, 100, 124, 124, 113, 120, 77, 129, 129, 96, 122, 133, 112, 135, 158, 112, 112, 108, 84, 110, 110, 109, 108, 102, 102, 140, 93, 140, 98, 97, 88, 121, 121, 79, 112, 106, 108, 110, 137, 88, 97, 107, 72, 116, 99, 135, 133, 115, 112, 121, 85, 85, 133, 98, 84, 104, 125, 102, 88, 75, 47, 121, 74, 149, 129, 118, 137, 137, 108, 132, 102, 110, 75, 146, 130, 90, 88, 105, 76, 126, 161, 121, 120, 120, 135, 87, 252, 71, 71, 105, 140, 255, 123, 250, 130, 130, 255, 255, 113, 110, 113, 110, 113, 108, 112, 110, 105, 112, 108, 108, 109, 109, 110, 113, 108, 106, 110, 106, 108, 110, 110, 108, 108, 107, 104, 107, 110, 108, 108, 110, 107, 108, 110, 110, 109, 109, 107, 109, 110, 109, 110, 110, 110, 109, 108, 110, 112, 107, 109, 109, 109, 107, 107, 108, 107, 108, 108, 108, 109, 109, 108, 108, 106, 106, 110, 108, 110, 108, 110, 109, 113, 109, 110, 112, 109, 110, 106, 106, 109, 106, 108, 109, 109, 112, 112, 109, 109, 109, 108, 110, 106, 107, 107, 107, 110, 109, 108, 108, 109, 115, 108, 108, 108, 109, 109, 112, 108, 110, 102, 137, 105, 110, 110, 91, 110, 122, 118, 114, 105, 115, 99, 106, 117, 102, 107, 112, 123, 123, 141, 104, 81, 159, 128, 135, 71, 122, 108, 112, 112, 129, 109, 105, 104, 126, 118, 104, 104, 105, 112, 125, 112, 113, 105, 105, 122, 113, 99, 96, 88, 105, 120, 126, 96, 120, 104, 104, 96, 106, 97, 84, 106, 126, 114, 120, 104, 130, 122, 109, 93, 106, 133, 134, 134, 113, 87, 113, 113, 80, 105, 105, 112, 118, 112, 105, 88, 123, 123, 113, 100, 115, 118, 89, 105, 109, 109, 93, 100, 117, 117, 112, 92, 92, 110, 108, 98, 118, 98, 113, 108, 116, 100, 105, 126, 126, 106, 110, 110, 101, 106, 131, 131, 116, 100, 97, 106, 118, 94, 100, 117, 108, 102, 107, 113, 110, 101, 108, 106, 112, 124, 118, 115, 92, 104, 104, 109, 124, 99, 115, 110, 100, 107, 96, 116, 114, 104, 113, 115, 115, 108, 110, 125, 112, 105, 106, 94, 102, 113, 117, 126, 126, 122, 107, 107, 110, 112, 100, 100, 105, 112, 107, 118, 118, 104, 112, 112, 122, 98, 104, 106, 106, 105, 102, 112, 113, 114, 113, 117, 116, 106, 92, 92, 105, 109, 116, 109, 112, 106, 106, 108, 123, 105, 105, 109, 113, 108, 110, 110, 118, 123, 113, 106, 110, 110, 112, 110, 110, 109, 109, 109, 109, 109, 112, 112, 109, 110, 110, 108, 109, 109, 109, 108, 110, 109, 110, 107, 109, 110, 108, 110, 109, 108, 109, 108, 109, 110, 109, 110, 109, 112, 108, 112, 110, 110, 109, 108, 110, 109, 109, 110, 110, 109, 109, 108, 112, 109, 110, 110, 109, 109, 108, 110, 110, 107, 107, 112, 107, 110, 109, 110, 110, 110, 110, 112, 112, 107, 109, 109, 109, 110, 107, 109, 109, 110, 109, 109, 110, 109, 109, 109, 109, 112, 112, 108, 109, 109, 108, 110, 109, 110, 109, 110, 108, 107, 102, 108, 141, 63, 97, 24, 0, 96, 138, 92, 115, 32, 38, 38, 107, 30, 33, 33, 50, 128, 128, 219, 184, 59, 221, 121, 118, 57, 167, 121, 22, 148, 24, 51, 178, 96, 99, 184, 164, 138, 138, 121, 108, 122, 35, 93, 125, 96, 27, 135, 120, 104, 165, 92, 81, 133, 137, 116, 109, 97, 76, 101, 93, 68, 121, 149, 139, 91, 93, 82, 108, 125, 89, 107, 123, 96, 42, 77, 139, 101, 135, 87, 132, 73, 92, 92, 101, 67, 80, 123, 112, 66, 92, 110, 115, 129, 147, 87, 117, 123, 140, 101, 57, 121, 150, 105, 67, 146, 129, 96, 117, 109, 66, 72, 121, 120, 101, 96, 131, 73, 83, 118, 87, 87, 116, 116, 122, 131, 121, 30, 128, 137, 125, 125, 81, 81, 97, 137, 137, 106, 77, 134, 101, 101, 100, 80, 106, 99, 100, 81, 112, 112, 91, 114, 151, 94, 102, 130, 130, 66, 97, 176, 83, 134, 134, 85, 85, 87, 150, 121, 121, 104, 114, 98, 108, 108, 115, 113, 113, 110, 121, 108, 112, 112, 109, 109, 109, 110, 107, 109, 109, 109, 108, 108, 112, 110, 108, 108, 109, 109, 109, 109, 113, 108, 109, 107, 108, 108, 108, 109, 108, 113, 109, 110, 109, 110, 113, 107, 112, 112, 110, 108, 110, 110, 110, 107, 109, 110, 108, 109, 110, 110, 107, 112, 112, 108, 110, 109, 109, 112, 108, 109, 110, 108, 109, 109, 109, 108, 109, 108, 108, 109, 113, 109, 108, 108, 114, 107, 108, 108, 108, 109, 110, 110, 108, 109, 109, 110, 109, 108, 108, 110, 108, 112, 109, 109, 112, 110, 108, 106, 113, 112, 110, 110, 110, 108, 109, 108, 108, 107, 110, 110, 110, 109, 109, 109, 109, 109, 113, 109, 110, 108, 108, 108, 113, 107, 107, 109, 108, 110, 110, 115, 104, 105, 105, 81, 106, 134, 134, 90, 131, 143, 121, 154, 104, 88, 76, 85, 101, 91, 64, 129, 128, 135, 135, 138, 161, 141, 97, 125, 72, 105, 130, 100, 91, 89, 89, 96, 96, 131, 131, 104, 104, 113, 112, 94, 118, 113, 83, 97, 135, 71, 83, 83, 114, 104, 117, 130, 148, 109, 104, 155, 91, 90, 149, 114, 128, 82, 74, 92, 120, 82, 114, 109, 87, 98, 90, 143, 107, 118, 66, 130, 171, 106, 159, 101, 101, 131, 94, 109, 75, 116, 116, 94, 94, 75, 122, 99, 99, 124, 71, 147, 106, 122, 154, 154, 91, 108, 106, 106, 96, 106, 59, 59, 143, 126, 161, 161, 97, 104, 92, 129, 85, 107, 107, 92, 98, 134, 134, 122, 117, 123, 123, 107, 112, 122, 106, 82, 100, 104, 104, 89, 94, 101, 104, 106, 93, 91, 91, 85, 145, 124, 124, 102, 102, 125, 77, 120, 120, 99, 99, 81, 109, 89, 101, 123, 90, 110, 96, 149, 114, 132, 102, 89, 94, 101, 116, 112, 109, 108, 109, 112, 109, 108, 112, 108, 113, 113, 110, 110, 112, 108, 110, 107, 112, 112, 109, 107, 107, 110, 112, 109, 109, 109, 110, 109, 110, 109, 110, 108, 107, 110, 109, 110, 109, 110, 112, 109, 107, 110, 108, 108, 109, 110, 108, 108, 108, 112, 109, 112, 108, 109, 112, 108, 110, 110, 108, 109, 108, 109, 110, 109, 109, 108, 110, 110, 108, 109, 110, 110, 109, 109, 109, 109, 109, 109, 109, 109, 110, 110, 109, 109, 110, 109, 110, 109, 107, 107, 110, 108, 110, 108, 109, 109, 108, 109, 109, 110, 110, 109, 107, 110, 110, 109, 109, 109, 110, 107, 112, 109, 108, 112, 112, 108, 126, 112, 117, 109, 102, 104, 107, 116, 120, 113, 118, 105, 105, 114, 114, 114, 116, 69, 106, 125, 114, 109, 93, 113, 158, 91, 100, 124, 117, 87, 107, 105, 107, 108, 131, 145, 91, 118, 122, 101, 114, 84, 107, 107, 133, 96, 100, 100, 128, 123, 96, 105, 102, 97, 91, 91, 75, 102, 126, 168, 128, 91, 110, 98, 114, 89, 118, 112, 112, 109, 105, 114, 118, 105, 116, 108, 105, 128, 114, 112, 123, 102, 112, 106, 106, 118, 84, 84, 123, 125, 94, 110, 109, 102, 98, 98, 120, 109, 110, 104, 112, 113, 121, 108, 108, 113, 114, 101, 101, 109, 115, 115, 108, 121, 121, 100, 100, 100, 102, 102, 112, 106, 112, 107, 124, 110, 96, 99, 115, 131, 99, 99, 72, 106, 106, 106, 115, 113, 110, 124, 100, 115, 100, 101, 116, 105, 109, 109, 113, 116, 116, 108, 104, 104, 102, 110, 109, 117, 99, 116, 112, 112, 110, 107, 117, 113, 105, 105, 108, 92, 92, 107, 116, 129, 108, 121, 102, 104, 108, 106, 99, 109, 107, 107, 112, 110, 113, 113, 108, 112, 108, 109, 109, 112, 109, 110, 110, 107, 110, 109, 108, 110, 110, 108, 108, 110, 110, 109, 109, 109, 112, 108, 109, 109, 110, 109, 110, 107, 108, 108, 110, 112, 108, 112, 108, 108, 109, 110, 110, 108, 109, 109, 108, 108, 107, 109, 109, 109, 112, 110, 107, 112, 109, 112, 109, 107, 108, 110, 110, 110, 109, 109, 108, 110, 109, 108, 110, 109, 109, 108, 109, 109, 109, 109, 109, 112, 112, 109, 109, 108, 108, 110, 108, 110, 108, 108, 109, 110, 109, 110, 108, 108, 110, 110, 110, 109, 107, 110, 108, 109, 109, 108, 108, 109, 109, 110, 108, 108, 107, 108, 109, 109, 109, 110, 110, 113, 112, 109, 108, 107, 109, 110, 110, 107, 110, 109, 110, 116, 110, 108, 107, 107, 110, 110, 108, 109, 104, 109, 109, 112, 110, 109, 109, 110, 107, 108, 109, 108, 109, 110, 110, 104, 109, 109, 109, 109, 110, 108, 112, 108, 107, 110, 110, 109, 108, 108, 112, 109, 109, 106, 109, 110, 107, 112, 108, 109, 109, 108, 110, 108, 108, 109, 108, 112, 108, 110, 110, 108, 108, 110, 112, 109, 108, 109, 110, 109, 109, 109, 109, 110, 110, 110, 109, 108, 108, 109, 109, 112, 109, 112, 109, 107, 112, 109, 108, 104, 104, 112, 112, 109, 107, 107, 108, 108, 108, 110, 110, 109, 113, 108, 110, 110, 110, 102, 110, 108, 109, 110, 110, 109, 110, 112, 108, 109, 112, 110, 110, 108, 109, 109, 108, 110, 110, 110, 109, 108, 109, 106, 109, 109, 109, 110, 108, 108, 110, 108, 97, 109, 108, 109, 105, 105, 150, 150, 88, 158, 131, 97, 67, 100, 85, 138, 99, 109, 162, 118, 97, 113, 113, 215, 99, 63, 104, 22, 80, 63, 143, 138, 130, 154, 114, 84, 124, 134, 61, 83, 92, 64, 105, 106, 171, 77, 79, 116, 117, 117, 77, 97, 139, 139, 101, 124, 117, 121, 84, 209, 123, 138, 124, 68, 125, 76, 128, 106, 121, 124, 112, 102, 113, 116, 98, 109, 109, 140, 123, 83, 83, 91, 104, 91, 79, 145, 88, 105, 147, 99, 100, 100, 106, 106, 151, 102, 107, 101, 151, 107, 109, 126, 109, 83, 120, 116, 77, 139, 122, 88, 109, 105, 143, 130, 105, 135, 96, 120, 98, 89, 89, 91, 125, 114, 154, 153, 114, 133, 128, 105, 90, 143, 131, 105, 110, 94, 93, 110, 79, 91, 116, 112, 120, 117, 117, 84, 110, 110, 89, 125, 107, 101, 105, 104, 130, 117, 117, 101, 96, 83, 105, 94, 110, 116, 115, 118, 124, 104, 180, 138, 76, 93, 93, 93, 131, 102, 115, 113, 108, 97, 107, 115, 108, 105, 107, 107, 137, 116, 98, 98, 104, 105, 100, 102, 102, 113, 105, 105, 105, 112, 113, 112, 113, 109, 110, 110, 112, 109, 112, 112, 110, 109, 107, 110, 110, 108, 108, 110, 109, 112, 107, 107, 108, 110, 112, 109, 109, 110, 109, 108, 110, 107, 110, 110, 109, 109, 109, 109, 110, 112, 108, 112, 109, 109, 110, 109, 112, 109, 108, 109, 110, 110, 109, 110, 109, 109, 112, 109, 107, 110, 109, 109, 109, 109, 110, 109, 110, 110, 109, 109, 110, 108, 108, 109, 109, 109, 112, 109, 109, 110, 110, 110, 110, 108, 110, 109, 107, 109, 108, 109, 110, 108, 109, 110, 110, 109, 108, 109, 109, 110, 108, 112, 110, 108, 108, 109, 109, 110, 110, 109, 109, 109, 110, 122, 109, 100, 102, 106, 141, 141, 118, 107, 118, 124, 87, 107, 101, 98, 108, 121, 121, 106, 129, 112, 109, 122, 72, 108, 109, 108, 154, 154, 89, 96, 140, 140, 96, 105, 101, 117, 56, 121, 89, 122, 122, 116, 116, 115, 121, 106, 112, 125, 94, 97, 113, 110, 90, 118, 117, 102, 113, 110, 121, 102, 116, 112, 60, 120, 118, 101, 92, 112, 91, 112, 106, 106, 99, 107, 110, 135, 100, 117, 100, 115, 106, 108, 97, 97, 117, 114, 118, 99, 112, 109, 106, 126, 120, 100, 106, 106, 120, 120, 123, 123, 114, 118, 120, 105, 98, 109, 109, 104, 117, 121, 114, 108, 93, 93, 116, 99, 115, 125, 125, 123, 105, 108, 90, 107, 122, 113, 100, 109, 128, 97, 126, 87, 125, 115, 105, 120, 84, 84, 94, 107, 94, 117, 116, 121, 100, 113, 105, 94, 98, 108, 108, 113, 91, 107, 104, 108, 123, 106, 130, 98, 105, 105, 108, 105, 137, 94, 106, 102, 110, 122, 107, 98, 109, 134, 115, 93, 93, 93, 120, 105, 101, 102, 110, 102, 109, 106, 116, 112, 110, 109, 107, 108, 112, 109, 109, 113, 109, 109, 110, 107, 109, 109, 110, 108, 108, 110, 109, 109, 109, 112, 109, 110, 112, 108, 108, 110, 110, 109, 109, 109, 109, 110, 109, 108, 109, 110, 110, 110, 108, 109, 109, 110, 109, 109, 110, 109, 109, 108, 110, 108, 110, 110, 109, 109, 108, 110, 110, 110, 109, 110, 107, 109, 109, 108, 112, 110, 108, 109, 110, 110, 112, 109, 110, 110, 110, 109, 109, 109, 109, 109, 109, 109, 108, 110, 109, 109, 109, 110, 109, 107, 109, 110, 108, 109, 110, 110, 108, 108, 109, 110, 109, 109, 109, 109, 109, 108, 108, 110, 110, 106, 108, 112, 110, 109, 108, 108, 107, 107, 108, 96, 96, 99, 108, 83, 165, 101, 142, 92, 161, 57, 73, 34, 64, 110, 66, 197, 132, 28, 52, 205, 125, 75, 165, 165, 126, 72, 93, 148, 172, 52, 140, 82, 224, 166, 129, 11, 96, 189, 80, 107, 125, 115, 130, 133, 126, 134, 114, 75, 170, 79, 97, 125, 109, 133, 55, 40, 108, 100, 104, 146, 133, 109, 133, 96, 108, 125, 113, 104, 106, 183, 114, 91, 94, 131, 100, 94, 59, 110, 133, 128, 125, 132, 151, 112, 107, 135, 80, 75, 135, 98, 54, 90, 106, 147, 57, 57, 105, 183, 114, 148, 130, 151, 105, 28, 100, 131, 131, 76, 97, 100, 172, 176, 72, 123, 99, 131, 96, 96, 145, 125, 106, 121, 112, 157, 91, 132, 73, 115, 89, 87, 89, 132, 132, 87, 107, 107, 124, 112, 108, 89, 114, 92, 92, 122, 93, 139, 109, 123, 123, 123, 123, 115, 104, 105, 108, 97, 92, 137, 129, 129, 108, 108, 126, 93, 110, 114, 112, 102, 106, 153, 159, 99, 99, 74, 124, 134, 129, 125, 91, 85, 108, 91, 101, 113, 79, 79, 113, 122, 108, 107, 113, 108, 108, 110, 108, 108, 108, 113, 109, 110, 108, 110, 109, 109, 109, 110, 109, 108, 108, 108, 108, 108, 110, 112, 109, 109, 109, 109, 109, 109, 109, 108, 110, 112, 109, 109, 109, 109, 109, 109, 109, 112, 110, 112, 109, 107, 110, 110, 110, 109, 107, 107, 110, 109, 108, 109, 109, 109, 109, 108, 110, 108, 109, 109, 110, 109, 108, 113, 110, 109, 109, 109, 109, 110, 108, 108, 108, 107, 107, 108, 109, 109, 109, 109, 110, 107, 108, 110, 110, 108, 110, 108, 108, 110, 110, 110, 107, 110, 112, 109, 107, 109, 108, 107, 109, 110, 110, 109, 109, 109, 109, 110, 110, 108, 109, 109, 109, 109, 102, 102, 128, 128, 98, 67, 97, 134, 109, 142, 77, 148, 105, 105, 139, 84, 139, 48, 48, 114, 124, 96, 96, 121, 61, 154, 149, 115, 125, 117, 133, 81, 98, 98, 102, 123, 57, 79, 91, 100, 97, 97, 101, 130, 109, 110, 146, 105, 146, 85, 100, 151, 80, 134, 96, 96, 109, 80, 132, 113, 112, 106, 106, 106, 106, 109, 118, 112, 92, 120, 135, 105, 105, 93, 94, 94, 115, 71, 125, 105, 122, 122, 88, 115, 104, 126, 108, 137, 117, 113, 85, 89, 122, 122, 129, 90, 100, 100, 77, 122, 81, 81, 105, 117, 110, 106, 109, 118, 134, 87, 87, 107, 126, 104, 117, 104, 104, 112, 98, 123, 107, 124, 106, 112, 97, 117, 120, 114, 121, 98, 105, 90, 123, 107, 128, 100, 105, 116, 66, 101, 101, 121, 159, 105, 92, 93, 116, 101, 98, 115, 112, 104, 121, 117, 117, 110, 96, 96, 114, 109, 101, 110, 126, 92, 112, 102, 126, 105, 117, 114, 114, 124, 120, 98, 135, 108, 108, 87, 99, 124, 102, 123, 110, 102, 107, 90, 118, 137, 102, 110, 107, 110, 110, 110, 109, 110, 112, 110, 110, 110, 112, 110, 108, 110, 110, 109, 107, 108, 109, 110, 109, 112, 109, 109, 110, 110, 108, 110, 109, 107, 108, 108, 107, 110, 109, 109, 109, 109, 108, 108, 109, 106, 110, 110, 112, 109, 109, 112, 107, 112, 109, 110, 108, 109, 109, 109, 108, 110, 110, 109, 109, 110, 108, 108, 109, 110, 108, 109, 109, 109, 110, 108, 109, 110, 108, 109, 108, 107, 116, 109, 104, 109, 112, 109, 110, 109, 109, 110, 112, 112, 109, 109, 108, 108, 110, 108, 109, 108, 109, 108, 109, 109, 112, 106, 110, 110, 112, 108, 112, 109, 108, 113, 108, 128, 98, 96, 109, 106, 93, 107, 108, 132, 85, 110, 110, 124, 123, 110, 115, 115, 133, 102, 114, 92, 73, 87, 109, 109, 96, 139, 115, 115, 112, 105, 112, 123, 123, 104, 124, 124, 40, 55, 137, 122, 122, 89, 130, 123, 123, 117, 139, 60, 112, 118, 112, 112, 76, 74, 116, 183, 148, 109, 54, 54, 148, 80, 110, 110, 96, 105, 114, 108, 55, 91, 141, 118, 117, 138, 92, 92, 59, 108, 108, 88, 87, 122, 98, 142, 61, 98, 116, 150, 68, 106, 124, 130, 87, 55, 126, 126, 126, 126, 59, 126, 170, 120, 98, 121, 142, 143, 132, 80, 80, 115, 61, 131, 123, 97, 85, 107, 87, 102, 143, 104, 113, 113, 117, 84, 117, 118, 97, 157, 115, 77, 110, 110, 110, 89, 115, 139, 126, 117, 105, 115, 114, 96, 115, 105, 124, 104, 104, 76, 107, 143, 102, 113, 139, 102, 110, 108, 129, 115, 102, 102, 98, 98, 120, 121, 115, 102, 118, 93, 110, 123, 104, 81, 123, 133, 123, 124, 93, 105, 96, 98, 102, 92, 112, 101, 121, 91, 104, 108, 109, 110, 110, 117, 88, 100, 115, 106, 117, 108, 104, 104, 106, 116, 122, 110, 94, 114, 106, 108, 107, 113, 115, 107, 104, 102, 110, 105, 105, 109, 106, 106, 109, 109, 109, 109, 107, 107, 107, 109, 110, 109, 109, 108, 110, 110, 108, 108, 109, 108, 110, 110, 110, 108, 109, 110, 112, 109, 108, 108, 112, 112, 109, 108, 109, 110, 110, 112, 109, 110, 109 }


no. 3511 point