{ 113, 111, 111, 115, 115, 112, 112, 113, 112, 113, 111, 111, 112, 112, 111, 113, 111, 113, 112, 112, 113, 111, 113, 112, 112, 111, 112, 112, 112, 112, 111, 113, 115, 113, 111, 114, 112, 113, 111, 110, 113, 111, 113, 113, 112, 113, 111, 111, 111, 114, 111, 111, 111, 112, 113, 114, 113, 112, 112, 112, 113, 112, 114, 111, 111, 112, 112, 112, 112, 112, 115, 111, 111, 113, 112, 112, 111, 112, 113, 111, 113, 113, 112, 114, 114, 114, 113, 111, 110, 111, 113, 111, 112, 114, 113, 112, 113, 110, 113, 112, 112, 111, 113, 113, 112, 113, 115, 113, 112, 114, 114, 112, 112, 111, 113, 112, 110, 111, 112, 112, 111, 112, 114, 112, 110, 112, 113, 112, 114, 111, 111, 112, 112, 113, 113, 112, 112, 112, 112, 112, 113, 111, 113, 112, 113, 112, 110, 112, 113, 112, 111, 112, 113, 111, 113, 113, 113, 111, 114, 112, 110, 112, 112, 114, 112, 112, 111, 113, 111, 113, 113, 112, 113, 110, 112, 113, 113, 113, 112, 113, 113, 111, 112, 111, 112, 112, 114, 111, 112, 113, 110, 112, 112, 113, 112, 112, 111, 112, 113, 111, 113, 111, 110, 112, 112, 110, 111, 112, 112, 112, 112, 114, 112, 110, 111, 113, 113, 112, 111, 112, 112, 112, 111, 110, 114, 113, 112, 112, 110, 114, 112, 114, 111, 112, 111, 113, 112, 114, 112, 112, 112, 112, 113, 113, 112, 114, 108, 112, 112, 113, 112, 112, 112, 114, 112, 112, 112, 112, 113, 112, 112, 114, 111, 111, 112, 111, 113, 113, 111, 113, 115, 112, 108, 112, 113, 113, 112, 112, 111, 112, 112, 111, 111, 113, 113, 110, 113, 112, 113, 112, 111, 110, 112, 113, 112, 113, 113, 112, 111, 110, 123, 123, 108, 106, 106, 83, 115, 76, 83, 114, 128, 47, 21, 204, 35, 54, 54, 106, 142, 161, 178, 128, 7, 159, 202, 66, 228, 228, 0, 0, 150, 50, 101, 134, 62, 62, 174, 133, 141, 95, 120, 147, 147, 49, 76, 76, 162, 153, 51, 56, 96, 120, 104, 56, 95, 95, 138, 89, 89, 83, 96, 116, 185, 170, 35, 95, 95, 111, 74, 74, 117, 167, 105, 93, 120, 124, 95, 95, 116, 75, 106, 106, 84, 133, 110, 110, 111, 174, 98, 96, 62, 78, 83, 154, 91, 124, 124, 115, 102, 148, 148, 115, 116, 104, 125, 125, 106, 66, 138, 129, 119, 119, 73, 73, 83, 108, 148, 102, 62, 108, 108, 152, 140, 108, 84, 124, 124, 93, 92, 57, 108, 108, 125, 138, 162, 116, 107, 123, 143, 143, 105, 103, 130, 130, 68, 105, 143, 143, 116, 134, 108, 79, 95, 89, 124, 124, 79, 129, 78, 144, 75, 111, 152, 88, 125, 128, 126, 110, 132, 117, 100, 135, 103, 97, 97, 97, 108, 113, 88, 101, 84, 112, 92, 40, 115, 56, 128, 121, 145, 144, 144, 93, 131, 89, 116, 158, 119, 120, 107, 73, 114, 111, 116, 124, 107, 131, 131, 114, 84, 244, 91, 91, 126, 120, 255, 121, 234, 131, 131, 255, 255, 134, 104, 124, 110, 129, 108, 110, 122, 106, 124, 97, 106, 119, 112, 114, 117, 102, 111, 113, 104, 106, 105, 108, 112, 112, 98, 104, 107, 112, 96, 110, 114, 114, 114, 116, 110, 111, 114, 111, 110, 114, 112, 111, 111, 112, 111, 110, 111, 116, 113, 110, 112, 112, 113, 113, 112, 113, 113, 113, 110, 112, 112, 104, 112, 102, 102, 110, 113, 115, 106, 120, 115, 112, 112, 114, 114, 112, 112, 113, 113, 107, 113, 114, 111, 111, 113, 112, 113, 113, 117, 113, 108, 110, 108, 111, 111, 112, 112, 110, 110, 115, 107, 111, 111, 110, 113, 113, 115, 112, 111, 110, 122, 108, 111, 111, 100, 120, 120, 117, 123, 110, 124, 110, 114, 114, 104, 103, 124, 125, 125, 135, 83, 119, 160, 133, 133, 106, 92, 151, 122, 122, 106, 108, 102, 144, 121, 110, 120, 120, 97, 123, 132, 104, 105, 101, 101, 113, 134, 115, 103, 101, 120, 117, 103, 111, 108, 121, 121, 104, 115, 108, 113, 105, 112, 110, 120, 105, 128, 119, 117, 106, 116, 125, 112, 112, 113, 95, 120, 120, 94, 113, 113, 114, 115, 108, 104, 129, 114, 114, 138, 110, 103, 111, 114, 105, 107, 116, 120, 108, 104, 104, 103, 113, 113, 112, 107, 105, 122, 95, 114, 111, 130, 123, 111, 110, 110, 114, 107, 107, 112, 106, 107, 107, 108, 98, 103, 121, 121, 111, 112, 114, 100, 111, 116, 108, 106, 111, 108, 113, 113, 117, 114, 111, 104, 110, 110, 107, 128, 108, 114, 106, 101, 114, 114, 113, 116, 107, 101, 111, 111, 119, 116, 110, 107, 105, 120, 101, 102, 111, 112, 125, 125, 115, 108, 107, 114, 111, 113, 113, 108, 106, 110, 115, 115, 111, 114, 111, 106, 108, 110, 117, 117, 110, 111, 108, 113, 113, 113, 115, 108, 107, 120, 120, 114, 102, 108, 101, 110, 102, 102, 123, 122, 114, 114, 110, 119, 114, 104, 111, 121, 121, 114, 111, 111, 111, 111, 111, 108, 110, 113, 113, 111, 111, 113, 111, 113, 112, 112, 110, 112, 113, 112, 110, 112, 111, 110, 112, 112, 113, 113, 111, 113, 112, 112, 112, 112, 111, 111, 113, 112, 114, 110, 111, 111, 113, 113, 110, 113, 111, 113, 112, 110, 112, 111, 111, 113, 113, 112, 113, 111, 113, 112, 112, 112, 112, 111, 113, 112, 113, 110, 111, 114, 114, 112, 114, 114, 111, 112, 112, 112, 112, 112, 112, 112, 111, 114, 113, 114, 108, 110, 113, 111, 112, 113, 108, 112, 111, 113, 112, 113, 111, 113, 114, 110, 113, 110, 112, 123, 92, 105, 76, 65, 110, 128, 112, 119, 83, 81, 81, 123, 81, 87, 87, 54, 125, 125, 185, 135, 87, 154, 94, 123, 95, 108, 116, 64, 117, 82, 87, 141, 122, 108, 145, 117, 126, 126, 102, 107, 119, 102, 94, 121, 120, 77, 115, 103, 124, 119, 107, 103, 119, 125, 119, 112, 119, 102, 120, 76, 104, 120, 124, 128, 114, 117, 105, 104, 121, 108, 104, 121, 108, 98, 103, 114, 103, 123, 102, 113, 108, 115, 115, 124, 89, 116, 125, 117, 88, 107, 101, 125, 112, 132, 113, 111, 108, 129, 132, 93, 105, 120, 103, 93, 119, 122, 102, 116, 112, 102, 117, 120, 120, 104, 102, 122, 107, 105, 111, 134, 134, 108, 108, 121, 111, 121, 88, 106, 128, 111, 126, 91, 91, 104, 114, 114, 107, 101, 123, 128, 128, 108, 110, 111, 121, 110, 101, 105, 110, 116, 107, 122, 112, 110, 125, 125, 103, 111, 139, 93, 117, 117, 105, 105, 114, 125, 110, 110, 111, 112, 106, 110, 110, 119, 113, 113, 115, 112, 111, 114, 114, 110, 110, 112, 113, 113, 112, 112, 113, 112, 112, 112, 111, 110, 110, 112, 113, 113, 111, 120, 112, 114, 112, 111, 112, 112, 111, 112, 112, 112, 114, 112, 114, 119, 108, 108, 108, 110, 112, 112, 111, 112, 112, 110, 113, 112, 110, 113, 113, 114, 113, 113, 114, 113, 113, 112, 112, 112, 105, 113, 112, 111, 113, 113, 112, 115, 113, 113, 110, 112, 112, 110, 116, 114, 106, 113, 110, 110, 110, 113, 113, 113, 113, 113, 111, 113, 112, 111, 114, 112, 111, 113, 112, 113, 114, 114, 111, 116, 108, 110, 110, 108, 112, 114, 112, 111, 114, 113, 113, 114, 108, 114, 114, 116, 113, 110, 112, 112, 111, 112, 112, 114, 110, 110, 114, 112, 114, 114, 116, 111, 112, 112, 96, 111, 119, 119, 108, 125, 130, 112, 141, 111, 100, 95, 96, 106, 97, 96, 115, 132, 119, 119, 124, 128, 138, 117, 121, 81, 115, 133, 103, 115, 96, 96, 104, 104, 106, 106, 104, 104, 130, 117, 100, 113, 100, 105, 111, 123, 98, 108, 108, 115, 117, 110, 119, 130, 103, 111, 128, 96, 113, 120, 115, 116, 106, 88, 111, 144, 98, 111, 105, 101, 117, 92, 128, 111, 108, 93, 115, 134, 104, 147, 111, 111, 126, 91, 110, 92, 112, 122, 101, 101, 93, 116, 107, 107, 120, 95, 128, 121, 117, 123, 123, 106, 117, 103, 103, 104, 111, 96, 96, 125, 119, 123, 123, 106, 114, 105, 115, 105, 121, 121, 108, 105, 115, 115, 120, 119, 124, 124, 115, 110, 110, 108, 96, 122, 111, 111, 100, 113, 101, 120, 115, 108, 116, 116, 100, 115, 119, 113, 95, 98, 113, 104, 128, 128, 106, 106, 107, 130, 95, 102, 124, 103, 111, 106, 129, 119, 104, 121, 106, 106, 115, 114, 114, 114, 111, 116, 108, 105, 106, 120, 112, 122, 122, 120, 115, 112, 113, 124, 115, 116, 116, 105, 111, 111, 110, 113, 112, 111, 112, 110, 114, 111, 119, 108, 111, 112, 111, 112, 112, 112, 112, 112, 114, 111, 115, 111, 111, 112, 112, 112, 110, 110, 112, 113, 113, 111, 110, 114, 112, 112, 115, 114, 111, 112, 110, 113, 111, 113, 113, 112, 112, 113, 114, 112, 111, 112, 113, 113, 112, 113, 111, 112, 113, 111, 111, 112, 112, 113, 112, 112, 113, 112, 112, 112, 112, 112, 112, 115, 113, 111, 113, 114, 111, 112, 111, 112, 110, 113, 111, 111, 111, 113, 114, 112, 113, 111, 110, 116, 114, 157, 97, 145, 113, 76, 108, 101, 157, 116, 123, 124, 92, 92, 110, 110, 130, 135, 56, 75, 124, 88, 103, 100, 98, 155, 92, 126, 140, 199, 67, 154, 119, 112, 116, 143, 117, 124, 120, 130, 112, 97, 97, 113, 113, 134, 96, 112, 112, 112, 98, 111, 114, 103, 102, 95, 95, 63, 114, 122, 151, 121, 106, 116, 104, 133, 76, 95, 117, 117, 114, 111, 121, 102, 112, 105, 112, 112, 106, 111, 129, 132, 114, 131, 77, 77, 139, 60, 60, 105, 153, 106, 112, 122, 136, 94, 94, 114, 98, 130, 106, 101, 134, 141, 106, 103, 114, 113, 142, 142, 123, 115, 115, 87, 115, 115, 101, 103, 103, 104, 104, 129, 103, 101, 124, 120, 98, 110, 119, 120, 111, 107, 107, 98, 111, 94, 117, 113, 105, 116, 123, 104, 111, 110, 116, 108, 114, 115, 115, 117, 112, 114, 104, 102, 102, 106, 111, 111, 110, 104, 117, 114, 114, 117, 105, 117, 129, 102, 102, 114, 105, 105, 107, 110, 121, 125, 116, 104, 101, 108, 113, 105, 107, 112, 121, 113, 112, 112, 112, 113, 113, 113, 112, 112, 112, 112, 112, 110, 112, 112, 113, 113, 111, 111, 113, 113, 112, 113, 112, 112, 113, 112, 111, 113, 113, 112, 112, 113, 112, 112, 112, 113, 113, 112, 113, 114, 111, 114, 110, 110, 113, 113, 111, 112, 112, 112, 112, 112, 111, 114, 111, 113, 111, 113, 113, 113, 113, 112, 113, 112, 112, 112, 112, 113, 113, 113, 112, 111, 114, 113, 112, 112, 111, 111, 113, 112, 112, 112, 113, 113, 111, 111, 111, 112, 111, 111, 111, 112, 113, 112, 113, 110, 114, 112, 113, 112, 112, 111, 113, 114, 112, 113, 113, 111, 112, 111, 111, 113, 113, 112, 113, 113, 113, 112, 111, 111, 113, 112, 113, 112, 112, 112, 114, 114, 111, 111, 112, 111, 113, 113, 113, 111, 111, 111, 114, 114, 112, 111, 111, 111, 111, 113, 112, 111, 114, 112, 111, 114, 111, 112, 112, 114, 112, 113, 113, 113, 110, 112, 113, 112, 110, 112, 113, 113, 114, 111, 111, 111, 112, 114, 111, 112, 113, 114, 112, 112, 113, 113, 115, 112, 110, 113, 111, 111, 114, 111, 113, 113, 110, 110, 112, 111, 112, 112, 111, 114, 112, 112, 112, 112, 113, 113, 114, 110, 110, 110, 113, 112, 112, 112, 108, 112, 113, 113, 113, 112, 110, 110, 113, 111, 113, 111, 111, 112, 112, 113, 113, 113, 112, 111, 112, 112, 113, 113, 111, 113, 111, 113, 111, 113, 111, 112, 113, 111, 112, 110, 112, 113, 112, 111, 111, 112, 113, 113, 113, 113, 113, 112, 110, 113, 111, 111, 113, 112, 110, 112, 111, 107, 113, 111, 105, 108, 131, 148, 148, 60, 141, 103, 105, 58, 76, 125, 101, 173, 35, 163, 126, 108, 62, 62, 158, 75, 152, 145, 72, 62, 92, 150, 132, 113, 190, 98, 110, 145, 164, 45, 59, 46, 82, 139, 125, 152, 113, 93, 92, 124, 124, 62, 70, 149, 149, 128, 128, 132, 103, 97, 173, 176, 95, 138, 87, 122, 101, 119, 123, 132, 125, 103, 131, 159, 136, 75, 115, 115, 86, 68, 70, 70, 142, 83, 139, 105, 139, 72, 135, 130, 112, 111, 111, 93, 93, 142, 79, 106, 104, 129, 119, 113, 96, 102, 108, 97, 94, 82, 123, 145, 108, 125, 96, 150, 89, 126, 142, 139, 116, 122, 85, 108, 106, 121, 129, 89, 144, 97, 126, 104, 134, 143, 138, 114, 112, 116, 111, 128, 89, 115, 75, 106, 107, 121, 147, 85, 101, 100, 129, 110, 128, 111, 121, 117, 75, 111, 122, 122, 88, 126, 132, 96, 117, 115, 114, 110, 107, 117, 116, 148, 121, 79, 102, 102, 94, 116, 104, 124, 116, 114, 98, 115, 119, 112, 111, 108, 108, 105, 115, 115, 115, 112, 128, 108, 120, 120, 119, 114, 100, 100, 108, 117, 113, 115, 114, 111, 111, 112, 111, 113, 113, 111, 114, 111, 113, 112, 113, 113, 112, 110, 112, 112, 112, 113, 112, 111, 113, 113, 112, 112, 113, 112, 111, 112, 113, 111, 112, 112, 113, 114, 112, 113, 112, 113, 113, 112, 113, 111, 112, 112, 113, 112, 112, 113, 111, 112, 112, 114, 112, 112, 111, 112, 113, 112, 112, 110, 111, 114, 113, 113, 113, 111, 111, 111, 112, 112, 111, 112, 113, 113, 111, 111, 112, 112, 111, 114, 112, 114, 111, 112, 113, 112, 112, 111, 113, 112, 113, 112, 112, 112, 111, 111, 112, 112, 112, 112, 112, 112, 114, 114, 113, 113, 114, 111, 116, 112, 110, 106, 107, 138, 138, 116, 113, 113, 102, 92, 93, 115, 112, 84, 122, 122, 116, 166, 103, 97, 132, 94, 107, 106, 96, 115, 115, 94, 107, 125, 125, 97, 117, 101, 123, 96, 116, 129, 111, 117, 122, 122, 113, 112, 105, 123, 125, 74, 108, 112, 107, 100, 101, 116, 104, 116, 107, 122, 105, 112, 105, 110, 107, 115, 123, 107, 108, 107, 115, 112, 112, 116, 108, 110, 120, 102, 110, 123, 114, 112, 105, 100, 103, 116, 125, 112, 114, 114, 108, 110, 116, 116, 107, 108, 108, 116, 116, 126, 126, 122, 120, 124, 100, 97, 107, 115, 114, 122, 102, 113, 121, 111, 111, 108, 101, 113, 123, 123, 131, 101, 110, 103, 128, 110, 111, 112, 123, 102, 103, 126, 139, 113, 113, 106, 113, 94, 94, 111, 114, 97, 106, 115, 111, 92, 116, 125, 102, 115, 116, 116, 130, 101, 108, 123, 112, 119, 91, 116, 100, 125, 125, 103, 108, 117, 113, 108, 116, 108, 117, 111, 107, 102, 132, 103, 97, 114, 114, 117, 121, 108, 100, 101, 108, 111, 113, 113, 113, 112, 113, 113, 110, 114, 113, 113, 113, 112, 113, 114, 111, 112, 112, 112, 110, 111, 112, 113, 112, 112, 112, 112, 112, 114, 111, 111, 113, 110, 113, 113, 113, 113, 111, 113, 110, 114, 111, 112, 114, 112, 112, 114, 110, 111, 111, 111, 112, 112, 108, 112, 114, 113, 114, 114, 114, 110, 111, 113, 113, 111, 111, 112, 112, 113, 111, 113, 112, 111, 113, 113, 112, 114, 112, 114, 114, 111, 111, 113, 108, 113, 111, 112, 114, 114, 113, 111, 112, 112, 112, 112, 112, 113, 112, 111, 113, 113, 113, 112, 111, 112, 113, 111, 113, 112, 110, 111, 111, 114, 112, 113, 113, 111, 114, 112, 111, 110, 111, 113, 113, 114, 108, 108, 106, 108, 103, 136, 103, 129, 114, 138, 77, 96, 70, 87, 112, 97, 152, 130, 60, 83, 154, 104, 113, 139, 139, 113, 96, 117, 133, 136, 100, 124, 104, 158, 119, 121, 76, 93, 158, 108, 110, 114, 107, 121, 140, 131, 128, 108, 93, 128, 110, 101, 115, 114, 121, 87, 93, 107, 120, 103, 115, 114, 119, 123, 93, 114, 123, 120, 113, 113, 136, 112, 84, 96, 117, 111, 105, 92, 123, 107, 123, 115, 128, 126, 114, 111, 123, 101, 102, 128, 97, 93, 96, 119, 134, 88, 88, 112, 144, 103, 115, 119, 121, 98, 83, 104, 120, 120, 96, 105, 107, 143, 134, 103, 106, 108, 122, 103, 103, 122, 110, 108, 112, 115, 124, 111, 124, 102, 113, 107, 103, 104, 124, 124, 104, 113, 113, 111, 110, 107, 110, 108, 111, 111, 112, 110, 124, 107, 117, 117, 115, 115, 106, 97, 110, 114, 107, 110, 128, 119, 119, 107, 107, 122, 97, 105, 135, 115, 111, 115, 122, 132, 103, 103, 101, 119, 122, 110, 121, 100, 114, 101, 108, 113, 129, 98, 98, 107, 117, 112, 111, 113, 108, 113, 110, 115, 111, 111, 113, 112, 111, 111, 113, 112, 114, 112, 111, 111, 113, 112, 111, 113, 111, 112, 113, 112, 113, 112, 108, 113, 113, 114, 111, 113, 112, 111, 111, 112, 114, 112, 113, 113, 111, 114, 114, 110, 110, 112, 111, 111, 112, 115, 113, 111, 113, 111, 111, 113, 113, 112, 112, 112, 111, 112, 112, 111, 115, 111, 112, 110, 113, 110, 112, 113, 113, 111, 111, 111, 112, 112, 112, 112, 113, 113, 112, 112, 111, 113, 113, 113, 113, 111, 113, 111, 113, 112, 114, 112, 112, 112, 113, 114, 113, 112, 112, 111, 111, 112, 112, 112, 112, 112, 112, 113, 112, 115, 112, 110, 110, 108, 108, 123, 123, 108, 91, 112, 113, 120, 128, 91, 121, 116, 110, 126, 103, 122, 87, 87, 119, 117, 104, 104, 116, 86, 129, 130, 116, 125, 112, 108, 94, 117, 117, 117, 115, 88, 98, 102, 92, 110, 110, 111, 125, 107, 111, 130, 111, 126, 110, 110, 122, 102, 128, 105, 110, 110, 93, 132, 111, 114, 115, 115, 106, 106, 113, 111, 115, 120, 107, 121, 117, 100, 105, 106, 106, 116, 96, 113, 105, 115, 115, 104, 112, 110, 122, 114, 122, 119, 114, 104, 103, 116, 116, 117, 105, 108, 108, 97, 120, 107, 107, 108, 114, 113, 114, 110, 112, 124, 101, 101, 115, 119, 110, 115, 108, 111, 113, 108, 112, 115, 122, 114, 114, 107, 111, 113, 115, 112, 97, 114, 101, 111, 96, 124, 113, 112, 116, 98, 110, 110, 114, 120, 112, 106, 113, 113, 106, 110, 106, 116, 107, 117, 126, 126, 115, 102, 108, 115, 107, 107, 114, 115, 105, 112, 112, 119, 111, 114, 116, 116, 122, 112, 107, 123, 103, 121, 103, 110, 120, 114, 105, 114, 112, 113, 105, 114, 120, 111, 110, 113, 113, 115, 112, 108, 107, 112, 114, 115, 111, 116, 114, 114, 113, 114, 113, 115, 111, 112, 114, 113, 112, 111, 111, 113, 111, 113, 113, 112, 113, 111, 111, 112, 112, 112, 112, 114, 112, 112, 112, 112, 111, 113, 113, 113, 110, 111, 113, 113, 111, 112, 115, 113, 112, 112, 112, 110, 113, 113, 113, 112, 111, 113, 110, 113, 112, 113, 111, 110, 110, 112, 112, 111, 113, 112, 112, 110, 112, 113, 111, 114, 111, 112, 113, 110, 112, 114, 112, 112, 112, 111, 114, 112, 112, 112, 112, 113, 111, 111, 113, 113, 113, 111, 115, 111, 111, 113, 111, 112, 111, 105, 110, 108, 161, 73, 105, 116, 93, 83, 98, 101, 126, 96, 158, 158, 152, 106, 126, 114, 107, 125, 53, 138, 97, 129, 83, 108, 108, 113, 133, 141, 141, 116, 117, 122, 97, 97, 161, 136, 136, 77, 70, 105, 134, 134, 86, 121, 143, 143, 84, 158, 93, 106, 115, 100, 100, 125, 120, 56, 147, 141, 93, 104, 104, 132, 97, 155, 155, 94, 111, 122, 114, 58, 91, 89, 133, 123, 128, 113, 113, 92, 129, 129, 114, 132, 121, 116, 112, 36, 102, 125, 136, 110, 117, 91, 97, 125, 74, 148, 148, 121, 121, 92, 134, 125, 111, 107, 134, 120, 130, 110, 93, 93, 126, 96, 144, 135, 119, 100, 108, 91, 98, 129, 113, 106, 106, 113, 101, 106, 110, 86, 119, 138, 107, 116, 116, 113, 117, 125, 114, 116, 102, 126, 111, 121, 108, 114, 107, 104, 105, 105, 101, 129, 122, 98, 112, 134, 103, 111, 110, 113, 106, 119, 119, 101, 101, 122, 110, 108, 108, 113, 108, 112, 119, 115, 112, 121, 117, 111, 115, 110, 107, 115, 112, 104, 110, 110, 110, 114, 136, 102, 112, 111, 105, 105, 105, 106, 103, 102, 103, 108, 116, 116, 116, 113, 115, 114, 112, 107, 110, 112, 116, 108, 111, 113, 112, 110, 112, 113, 110, 110, 108, 112, 112, 112, 113, 112, 114, 111, 111, 112, 112, 112, 112, 112, 111, 112, 112, 112, 112, 113, 112, 111, 113, 113, 113, 114, 114, 114, 111, 113, 113, 113, 113, 112, 112, 114, 112, 112, 113, 114, 112, 111 }


no. 3511 point