{ 128, 125, 126, 125, 125, 127, 127, 129, 127, 127, 126, 128, 129, 127, 128, 128, 127, 127, 129, 129, 126, 126, 128, 125, 127, 128, 126, 126, 128, 127, 125, 126, 128, 128, 128, 128, 128, 128, 126, 125, 125, 126, 126, 128, 127, 127, 129, 127, 126, 128, 127, 127, 127, 129, 125, 127, 127, 129, 126, 129, 127, 126, 127, 129, 127, 126, 129, 129, 127, 125, 129, 126, 128, 128, 129, 126, 127, 126, 127, 128, 126, 129, 128, 128, 126, 128, 128, 126, 128, 129, 126, 129, 127, 127, 127, 129, 126, 127, 128, 127, 127, 128, 127, 127, 128, 125, 129, 127, 126, 129, 126, 126, 128, 127, 128, 126, 127, 127, 124, 128, 126, 127, 127, 127, 125, 127, 126, 128, 129, 126, 127, 127, 129, 127, 127, 128, 127, 126, 130, 126, 129, 127, 128, 128, 126, 125, 125, 126, 128, 127, 126, 127, 127, 128, 126, 127, 127, 128, 127, 128, 125, 129, 127, 127, 127, 125, 127, 126, 128, 127, 129, 127, 126, 129, 126, 126, 127, 128, 127, 126, 127, 124, 129, 127, 125, 125, 127, 128, 127, 126, 126, 129, 126, 128, 126, 127, 128, 126, 126, 128, 127, 128, 128, 125, 127, 128, 126, 127, 130, 128, 125, 125, 129, 127, 128, 127, 127, 126, 128, 128, 126, 126, 127, 127, 127, 128, 127, 127, 127, 127, 125, 125, 127, 126, 127, 127, 127, 128, 128, 128, 125, 128, 127, 127, 126, 128, 129, 127, 127, 125, 126, 129, 128, 129, 128, 128, 128, 125, 127, 130, 127, 126, 126, 128, 126, 126, 129, 127, 125, 128, 127, 127, 128, 125, 127, 127, 126, 127, 126, 128, 130, 125, 128, 126, 127, 126, 128, 127, 130, 127, 128, 127, 129, 127, 126, 128, 132, 129, 123, 125, 118, 135, 132, 121, 121, 115, 133, 115, 107, 126, 142, 127, 111, 93, 91, 147, 147, 148, 99, 170, 89, 122, 71, 89, 155, 137, 121, 121, 110, 110, 113, 109, 139, 168, 89, 89, 136, 93, 101, 151, 110, 135, 135, 170, 100, 100, 111, 151, 93, 117, 136, 137, 134, 159, 113, 113, 122, 140, 142, 117, 123, 116, 121, 145, 126, 113, 113, 141, 138, 138, 118, 113, 128, 144, 133, 96, 107, 107, 119, 174, 129, 129, 104, 131, 112, 112, 113, 138, 141, 126, 120, 155, 144, 139, 124, 130, 130, 139, 115, 139, 139, 140, 125, 97, 112, 112, 153, 122, 135, 101, 133, 133, 149, 149, 105, 122, 106, 137, 99, 137, 137, 124, 113, 170, 106, 141, 141, 146, 141, 134, 121, 121, 114, 126, 156, 128, 126, 161, 117, 117, 119, 122, 120, 120, 137, 140, 130, 130, 126, 118, 137, 117, 115, 98, 131, 131, 121, 139, 126, 133, 128, 137, 108, 111, 115, 116, 136, 121, 144, 155, 117, 109, 148, 121, 121, 119, 125, 116, 156, 144, 144, 120, 95, 103, 113, 130, 147, 140, 124, 135, 135, 99, 131, 145, 118, 112, 171, 145, 124, 122, 109, 129, 116, 167, 143, 120, 120, 138, 112, 253, 129, 129, 118, 135, 255, 133, 252, 139, 139, 253, 255, 111, 139, 127, 134, 130, 126, 131, 128, 122, 122, 129, 127, 127, 128, 127, 126, 125, 126, 126, 127, 127, 129, 128, 127, 127, 126, 128, 124, 127, 129, 127, 127, 126, 125, 127, 130, 127, 127, 127, 129, 129, 127, 125, 127, 128, 125, 123, 126, 127, 126, 127, 126, 127, 126, 126, 125, 126, 126, 126, 125, 126, 126, 128, 127, 128, 128, 129, 126, 127, 128, 125, 128, 130, 126, 130, 127, 128, 125, 126, 126, 127, 125, 125, 126, 126, 126, 130, 125, 125, 127, 127, 130, 123, 126, 127, 127, 127, 126, 127, 127, 125, 133, 131, 131, 127, 144, 144, 129, 127, 131, 107, 207, 118, 118, 118, 86, 129, 152, 135, 135, 120, 128, 108, 121, 130, 120, 131, 131, 135, 135, 135, 121, 93, 139, 135, 226, 53, 97, 104, 109, 109, 134, 134, 128, 123, 127, 120, 130, 130, 123, 117, 169, 142, 133, 118, 118, 129, 139, 106, 113, 109, 124, 122, 179, 114, 128, 139, 139, 103, 126, 104, 111, 120, 141, 121, 140, 118, 139, 153, 128, 111, 107, 145, 175, 175, 123, 92, 114, 114, 73, 128, 128, 149, 132, 111, 131, 117, 147, 147, 137, 105, 151, 128, 98, 117, 119, 121, 142, 121, 143, 143, 125, 108, 108, 119, 139, 98, 139, 107, 126, 131, 128, 119, 125, 153, 153, 132, 123, 123, 115, 124, 129, 129, 125, 103, 125, 144, 152, 112, 126, 135, 124, 126, 134, 130, 130, 116, 132, 117, 154, 132, 148, 136, 116, 118, 118, 130, 130, 108, 136, 125, 121, 112, 123, 123, 128, 136, 133, 124, 124, 125, 123, 145, 127, 129, 128, 108, 122, 140, 132, 163, 163, 152, 112, 132, 123, 151, 107, 107, 118, 123, 122, 129, 129, 128, 127, 118, 142, 113, 130, 120, 120, 122, 123, 126, 129, 133, 129, 141, 131, 121, 112, 112, 121, 125, 130, 126, 140, 125, 125, 129, 146, 130, 130, 122, 124, 130, 133, 123, 132, 139, 129, 122, 130, 130, 126, 128, 124, 126, 130, 130, 128, 128, 126, 128, 128, 126, 126, 128, 128, 128, 127, 126, 130, 126, 126, 128, 127, 127, 127, 127, 127, 128, 127, 129, 126, 129, 127, 127, 128, 128, 126, 127, 128, 127, 129, 127, 126, 127, 125, 127, 127, 128, 126, 126, 128, 126, 127, 129, 126, 129, 125, 127, 128, 129, 126, 128, 127, 128, 125, 126, 128, 128, 127, 128, 128, 126, 128, 126, 126, 126, 128, 127, 128, 125, 128, 125, 128, 128, 126, 126, 126, 127, 129, 127, 125, 128, 127, 127, 126, 126, 128, 126, 128, 128, 116, 103, 164, 66, 143, 5, 5, 79, 216, 101, 66, 26, 45, 45, 78, 102, 50, 50, 98, 169, 169, 205, 210, 38, 232, 190, 147, 74, 142, 113, 37, 244, 24, 78, 89, 111, 112, 255, 186, 158, 158, 142, 128, 107, 53, 126, 116, 108, 74, 107, 139, 132, 203, 99, 92, 182, 206, 133, 159, 134, 74, 76, 97, 105, 108, 154, 147, 76, 160, 109, 117, 162, 119, 101, 145, 136, 58, 101, 129, 132, 131, 123, 156, 98, 100, 100, 121, 112, 78, 143, 128, 61, 90, 148, 137, 122, 174, 95, 127, 131, 166, 118, 71, 162, 161, 114, 91, 151, 124, 98, 145, 162, 75, 109, 84, 143, 113, 161, 156, 87, 114, 149, 80, 80, 159, 159, 126, 127, 124, 30, 137, 151, 159, 139, 100, 100, 120, 153, 153, 131, 87, 151, 94, 94, 119, 80, 125, 97, 129, 88, 128, 127, 93, 132, 162, 120, 188, 138, 138, 26, 118, 219, 120, 146, 146, 109, 109, 99, 142, 129, 129, 126, 123, 116, 127, 127, 132, 133, 133, 128, 131, 130, 128, 128, 126, 128, 129, 128, 126, 128, 127, 128, 126, 126, 129, 124, 124, 124, 128, 126, 129, 127, 129, 127, 126, 125, 126, 125, 125, 127, 128, 127, 126, 128, 126, 130, 125, 129, 125, 125, 127, 127, 126, 129, 126, 128, 126, 128, 128, 125, 127, 127, 127, 131, 131, 127, 128, 127, 129, 128, 127, 126, 128, 126, 126, 127, 127, 127, 128, 127, 127, 125, 128, 128, 127, 125, 129, 125, 127, 128, 127, 126, 127, 127, 127, 128, 128, 127, 127, 125, 125, 130, 127, 129, 128, 128, 127, 124, 124, 125, 128, 127, 128, 128, 128, 126, 128, 127, 126, 126, 125, 125, 129, 125, 127, 127, 128, 126, 129, 126, 129, 127, 126, 126, 129, 125, 125, 127, 124, 127, 127, 138, 121, 111, 111, 98, 124, 204, 204, 86, 116, 156, 184, 132, 159, 83, 109, 106, 152, 175, 32, 172, 56, 136, 136, 132, 240, 158, 91, 192, 106, 123, 154, 85, 79, 120, 120, 147, 115, 171, 171, 137, 137, 111, 114, 144, 184, 162, 62, 108, 106, 105, 92, 92, 152, 161, 83, 119, 187, 103, 150, 192, 103, 76, 167, 119, 176, 79, 108, 100, 114, 92, 145, 131, 103, 125, 144, 155, 98, 160, 96, 149, 186, 148, 163, 102, 102, 133, 139, 127, 77, 121, 148, 141, 141, 98, 164, 114, 114, 175, 94, 189, 118, 181, 164, 164, 136, 100, 148, 148, 134, 113, 57, 57, 136, 175, 176, 176, 120, 124, 94, 131, 114, 104, 104, 86, 101, 156, 156, 132, 141, 91, 91, 80, 145, 133, 100, 126, 137, 112, 112, 91, 128, 129, 116, 117, 113, 108, 108, 97, 157, 125, 119, 118, 125, 124, 117, 124, 124, 133, 133, 109, 110, 143, 121, 119, 136, 132, 114, 159, 134, 133, 114, 127, 118, 118, 124, 128, 121, 128, 132, 125, 127, 129, 129, 126, 126, 125, 125, 127, 131, 130, 128, 127, 130, 130, 124, 129, 129, 126, 127, 128, 126, 127, 126, 128, 127, 127, 129, 128, 127, 128, 126, 127, 129, 126, 127, 127, 126, 129, 128, 129, 127, 127, 127, 126, 126, 127, 126, 129, 126, 126, 129, 128, 128, 127, 128, 126, 127, 124, 128, 129, 128, 125, 128, 128, 129, 127, 127, 127, 129, 126, 126, 128, 127, 128, 125, 128, 128, 128, 127, 127, 127, 129, 125, 127, 128, 126, 127, 126, 127, 128, 127, 129, 126, 127, 128, 127, 127, 127, 127, 127, 128, 130, 127, 128, 126, 126, 127, 126, 127, 130, 127, 126, 133, 130, 130, 123, 123, 122, 127, 125, 141, 122, 142, 113, 113, 151, 151, 129, 130, 87, 129, 147, 147, 138, 99, 127, 193, 114, 110, 137, 122, 132, 107, 127, 131, 111, 148, 180, 90, 147, 136, 120, 122, 107, 113, 113, 152, 117, 125, 125, 156, 142, 113, 124, 117, 108, 110, 110, 113, 108, 124, 162, 149, 111, 137, 113, 129, 108, 134, 122, 122, 118, 144, 127, 125, 122, 126, 124, 121, 139, 134, 123, 147, 115, 123, 135, 135, 165, 98, 98, 154, 130, 107, 109, 120, 123, 111, 111, 129, 142, 124, 124, 129, 123, 134, 130, 139, 140, 126, 112, 112, 123, 130, 130, 129, 131, 131, 121, 109, 109, 126, 126, 124, 129, 133, 127, 144, 127, 109, 114, 131, 146, 119, 119, 118, 126, 125, 116, 130, 128, 133, 142, 118, 120, 117, 116, 137, 119, 124, 124, 129, 129, 129, 124, 122, 122, 125, 121, 126, 135, 127, 139, 124, 124, 133, 126, 143, 116, 127, 127, 123, 113, 113, 127, 142, 140, 126, 139, 116, 122, 123, 121, 122, 125, 125, 127, 128, 129, 126, 126, 126, 127, 130, 127, 127, 128, 127, 129, 124, 122, 128, 127, 127, 128, 129, 128, 129, 127, 126, 125, 125, 127, 128, 127, 128, 128, 128, 124, 129, 125, 127, 127, 128, 127, 125, 128, 128, 128, 129, 126, 126, 127, 127, 128, 127, 126, 127, 127, 126, 129, 125, 127, 126, 127, 129, 130, 128, 126, 127, 126, 127, 126, 128, 128, 127, 126, 126, 126, 128, 128, 125, 127, 126, 127, 127, 128, 128, 125, 125, 126, 126, 124, 124, 127, 127, 127, 129, 126, 128, 126, 127, 127, 127, 128, 127, 126, 128, 129, 125, 129, 129, 125, 130, 126, 125, 129, 126, 128, 128, 128, 127, 129, 127, 127, 127, 126, 128, 126, 126, 129, 126, 128, 126, 128, 128, 126, 128, 126, 128, 129, 127, 129, 127, 125, 128, 128, 127, 127, 125, 129, 129, 128, 128, 127, 125, 129, 127, 127, 125, 129, 127, 126, 128, 127, 127, 127, 126, 128, 127, 126, 126, 125, 128, 129, 128, 127, 126, 126, 127, 126, 128, 126, 129, 127, 126, 127, 126, 127, 127, 128, 127, 126, 128, 127, 126, 128, 126, 127, 127, 128, 128, 128, 127, 127, 129, 126, 126, 126, 126, 128, 128, 128, 128, 129, 127, 128, 128, 127, 125, 127, 125, 127, 130, 123, 127, 127, 128, 124, 124, 126, 126, 129, 127, 127, 128, 128, 129, 127, 130, 126, 129, 127, 128, 126, 126, 125, 125, 128, 127, 126, 127, 128, 128, 127, 125, 130, 127, 127, 126, 127, 126, 126, 129, 127, 127, 127, 126, 125, 126, 127, 126, 129, 129, 126, 128, 126, 125, 126, 108, 130, 110, 121, 94, 94, 152, 152, 72, 157, 106, 146, 134, 107, 120, 164, 126, 126, 139, 132, 97, 116, 116, 186, 139, 101, 109, 72, 125, 119, 137, 130, 122, 134, 118, 116, 135, 130, 101, 163, 145, 124, 101, 128, 115, 118, 116, 125, 130, 130, 119, 115, 139, 139, 147, 125, 129, 132, 108, 175, 115, 130, 133, 112, 129, 127, 135, 124, 132, 125, 125, 111, 120, 131, 140, 114, 114, 163, 132, 105, 105, 122, 118, 110, 109, 129, 125, 132, 155, 116, 128, 128, 127, 127, 135, 137, 103, 117, 140, 123, 132, 140, 161, 100, 117, 142, 105, 128, 172, 112, 136, 133, 162, 136, 126, 156, 120, 124, 114, 125, 118, 117, 141, 128, 145, 138, 117, 170, 127, 128, 117, 163, 152, 125, 131, 128, 110, 127, 107, 135, 125, 137, 128, 141, 153, 113, 164, 134, 116, 125, 142, 136, 128, 127, 121, 128, 128, 117, 114, 116, 121, 105, 124, 135, 138, 137, 126, 112, 174, 148, 123, 128, 128, 122, 153, 113, 122, 135, 126, 114, 127, 137, 127, 117, 121, 121, 183, 142, 106, 106, 120, 113, 101, 109, 109, 125, 120, 137, 137, 130, 131, 131, 128, 128, 128, 128, 127, 128, 128, 128, 128, 126, 127, 127, 126, 124, 124, 126, 130, 130, 128, 128, 128, 126, 128, 128, 128, 127, 126, 126, 128, 127, 127, 126, 127, 129, 129, 127, 127, 127, 125, 128, 125, 129, 127, 129, 126, 127, 128, 127, 128, 127, 124, 125, 125, 125, 127, 127, 127, 126, 130, 127, 128, 128, 124, 126, 127, 127, 126, 126, 128, 127, 128, 130, 127, 127, 125, 127, 127, 127, 127, 128, 128, 127, 127, 126, 127, 126, 127, 126, 129, 126, 128, 125, 125, 127, 126, 128, 127, 125, 127, 127, 127, 127, 127, 127, 127, 128, 128, 128, 128, 128, 124, 152, 127, 99, 110, 118, 156, 156, 130, 133, 129, 133, 126, 118, 110, 114, 127, 130, 130, 120, 122, 122, 154, 131, 89, 103, 129, 126, 199, 199, 104, 123, 159, 159, 116, 114, 145, 141, 83, 133, 110, 163, 162, 118, 118, 133, 168, 128, 144, 178, 101, 102, 111, 120, 95, 131, 130, 120, 138, 119, 175, 114, 127, 130, 94, 124, 140, 107, 122, 136, 104, 121, 125, 125, 116, 128, 126, 144, 106, 133, 140, 128, 115, 125, 126, 118, 142, 127, 135, 110, 122, 126, 123, 146, 124, 118, 134, 134, 134, 134, 143, 143, 140, 132, 138, 117, 119, 126, 127, 129, 138, 134, 125, 122, 89, 89, 128, 104, 117, 144, 144, 134, 121, 123, 127, 126, 139, 130, 110, 121, 137, 127, 147, 106, 134, 131, 121, 136, 111, 111, 109, 121, 111, 119, 139, 140, 130, 130, 112, 117, 113, 116, 116, 124, 105, 111, 126, 142, 150, 118, 147, 115, 120, 120, 141, 117, 137, 105, 122, 127, 139, 156, 113, 109, 130, 156, 115, 113, 98, 98, 150, 121, 121, 128, 131, 116, 127, 129, 133, 127, 130, 128, 129, 126, 129, 124, 128, 131, 124, 126, 127, 127, 128, 128, 129, 127, 126, 128, 127, 127, 127, 128, 127, 127, 127, 129, 125, 128, 126, 127, 127, 128, 128, 126, 129, 127, 126, 128, 129, 126, 127, 127, 127, 126, 127, 128, 128, 128, 127, 126, 124, 129, 127, 128, 127, 127, 127, 125, 127, 127, 128, 127, 127, 130, 128, 126, 127, 127, 127, 128, 127, 126, 128, 127, 127, 127, 128, 126, 128, 126, 127, 127, 128, 128, 125, 128, 126, 127, 127, 127, 128, 124, 126, 129, 128, 127, 129, 129, 128, 127, 124, 128, 130, 126, 127, 127, 127, 129, 129, 128, 126, 128, 128, 128, 127, 125, 127, 128, 127, 127, 122, 97, 97, 142, 105, 87, 239, 98, 54, 17, 218, 175, 83, 97, 107, 152, 32, 205, 72, 65, 117, 222, 212, 90, 129, 129, 134, 62, 48, 155, 182, 27, 175, 87, 217, 191, 111, 0, 211, 192, 62, 131, 147, 183, 130, 169, 112, 134, 111, 103, 234, 56, 146, 137, 141, 148, 28, 12, 90, 102, 131, 155, 166, 127, 199, 96, 112, 121, 176, 124, 104, 209, 134, 124, 80, 114, 137, 80, 94, 175, 146, 127, 152, 153, 188, 118, 111, 182, 123, 15, 171, 85, 63, 82, 120, 160, 94, 94, 109, 221, 116, 166, 116, 194, 120, 69, 122, 151, 151, 91, 124, 139, 198, 216, 56, 141, 82, 164, 115, 115, 155, 112, 125, 146, 114, 149, 123, 197, 90, 147, 107, 98, 70, 172, 172, 102, 142, 142, 145, 117, 103, 108, 131, 120, 120, 121, 121, 141, 88, 178, 178, 140, 140, 133, 137, 116, 127, 99, 115, 152, 129, 129, 130, 130, 146, 85, 125, 95, 127, 142, 123, 165, 165, 132, 132, 70, 120, 198, 145, 123, 119, 134, 96, 116, 113, 112, 99, 99, 139, 139, 118, 123, 116, 133, 128, 127, 125, 125, 125, 131, 126, 127, 127, 125, 127, 126, 130, 127, 128, 127, 127, 126, 127, 126, 126, 127, 126, 129, 126, 127, 129, 129, 125, 128, 128, 126, 127, 127, 129, 127, 128, 129, 127, 129, 127, 128, 127, 127, 125, 129, 129, 124, 128, 126, 131, 126, 128, 128, 128, 127, 126, 125, 128, 126, 127, 127, 127, 127, 127, 127, 126, 127, 129, 127, 127, 128, 127, 127, 127, 126, 126, 127, 128, 127, 129, 126, 129, 125, 127, 127, 128, 126, 129, 128, 126, 127, 126, 127, 128, 126, 126, 127, 126, 127, 128, 127, 127, 126, 128, 126, 127, 128, 126, 126, 125, 128, 128, 125, 130, 130, 135, 108, 151, 151, 113, 74, 138, 170, 108, 138, 125, 212, 79, 123, 148, 88, 156, 91, 91, 147, 121, 140, 140, 110, 103, 120, 141, 124, 141, 95, 152, 80, 38, 38, 143, 118, 64, 112, 119, 139, 122, 122, 120, 161, 132, 117, 128, 112, 183, 80, 117, 153, 79, 175, 121, 84, 115, 143, 189, 134, 108, 85, 85, 129, 129, 152, 140, 117, 102, 121, 155, 99, 145, 122, 118, 118, 148, 22, 147, 132, 146, 146, 114, 126, 123, 133, 131, 147, 157, 116, 88, 92, 161, 161, 141, 111, 119, 119, 71, 116, 128, 128, 119, 144, 118, 85, 152, 153, 181, 89, 89, 106, 147, 113, 133, 105, 144, 113, 128, 131, 119, 124, 136, 135, 123, 141, 129, 109, 131, 128, 118, 147, 156, 121, 94, 111, 140, 133, 88, 138, 138, 128, 151, 111, 114, 106, 131, 123, 107, 152, 125, 120, 151, 150, 150, 126, 105, 108, 136, 126, 116, 131, 152, 100, 109, 126, 143, 124, 136, 108, 108, 147, 154, 99, 133, 100, 133, 111, 103, 141, 119, 146, 112, 122, 123, 106, 128, 132, 121, 129, 127, 124, 127, 126, 127, 127, 127, 126, 128, 128, 128, 126, 128, 125, 126, 127, 127, 127, 128, 129, 125, 127, 126, 126, 127, 127, 127, 127, 128, 126, 126, 129, 127, 126, 128, 127, 127, 127, 126, 126, 125, 127, 126, 127, 127, 127, 127, 126, 127, 128, 126, 128, 127, 127, 127, 126, 125, 129, 129, 129, 126, 127, 125, 125, 128, 129, 127, 126, 127, 127, 128, 128, 128, 126, 125, 127, 126, 126, 131, 127, 125, 128, 128, 128, 126, 126, 129, 127, 128, 128, 126, 128, 125, 127, 127, 124, 128, 128, 127, 127, 126, 126, 126, 127, 127, 127, 127, 126, 130, 129, 126, 131, 125, 138, 116, 121, 135, 131, 105, 116, 127, 145, 105, 130, 130, 142, 127, 127, 135, 134, 148, 132, 124, 122, 93, 98, 141, 141, 128, 151, 124, 124, 125, 124, 112, 131, 131, 119, 150, 150, 92, 114, 144, 135, 135, 120, 143, 133, 133, 118, 138, 113, 120, 134, 114, 114, 111, 135, 146, 140, 123, 133, 97, 97, 144, 124, 132, 132, 99, 122, 149, 126, 118, 96, 164, 130, 147, 130, 116, 116, 114, 121, 121, 124, 103, 132, 116, 144, 122, 116, 131, 129, 92, 124, 116, 143, 139, 115, 138, 138, 134, 134, 87, 131, 170, 143, 121, 128, 144, 150, 142, 114, 114, 138, 98, 141, 142, 129, 108, 122, 107, 141, 136, 124, 133, 133, 131, 134, 125, 130, 107, 159, 127, 106, 117, 117, 118, 123, 124, 148, 125, 127, 127, 146, 125, 115, 123, 129, 133, 111, 111, 113, 115, 133, 123, 126, 142, 130, 129, 134, 137, 122, 122, 122, 137, 117, 128, 129, 131, 126, 128, 118, 134, 129, 127, 94, 130, 133, 135, 130, 111, 122, 112, 123, 117, 111, 132, 122, 119, 120, 114, 127, 128, 133, 133, 126, 119, 128, 133, 121, 137, 126, 117, 117, 124, 130, 117, 132, 114, 133, 122, 130, 123, 130, 129, 127, 127, 125, 128, 127, 127, 124, 129, 129, 126, 126, 127, 125, 128, 128, 127, 126, 126, 126, 126, 126, 128, 128, 128, 128, 128, 128, 129, 128, 127, 128, 126, 131, 131, 126, 126, 126, 127, 127, 131, 128, 128, 128, 128, 129, 126, 126, 127 }


no. 3511 point