{ 106, 99, 103, 97, 97, 109, 105, 111, 104, 106, 103, 108, 103, 108, 104, 106, 104, 103, 110, 110, 103, 102, 110, 101, 109, 105, 103, 101, 108, 103, 103, 104, 102, 105, 105, 108, 105, 109, 104, 110, 108, 105, 101, 105, 103, 105, 106, 109, 108, 106, 106, 106, 106, 106, 105, 106, 105, 103, 106, 104, 108, 105, 104, 108, 106, 105, 106, 106, 105, 101, 108, 99, 106, 105, 102, 102, 105, 102, 111, 106, 106, 104, 101, 105, 103, 106, 106, 105, 108, 105, 104, 104, 105, 105, 106, 104, 104, 104, 108, 103, 110, 106, 109, 106, 106, 108, 104, 105, 105, 103, 98, 103, 105, 103, 113, 106, 115, 104, 99, 106, 101, 108, 104, 102, 99, 104, 101, 105, 108, 104, 104, 98, 103, 111, 105, 104, 105, 109, 110, 104, 104, 115, 104, 101, 103, 109, 105, 108, 103, 110, 99, 109, 103, 108, 99, 103, 106, 106, 104, 104, 103, 105, 105, 105, 104, 99, 109, 106, 108, 106, 108, 104, 108, 101, 105, 106, 108, 109, 104, 102, 111, 104, 105, 105, 105, 105, 106, 109, 108, 105, 98, 106, 106, 106, 105, 106, 105, 104, 104, 106, 104, 104, 105, 108, 105, 109, 102, 103, 106, 108, 102, 106, 108, 103, 109, 106, 110, 97, 108, 109, 101, 101, 108, 99, 109, 101, 106, 110, 101, 108, 103, 109, 104, 101, 108, 109, 105, 103, 109, 103, 106, 104, 99, 105, 109, 106, 102, 109, 102, 109, 108, 108, 103, 115, 103, 104, 103, 112, 103, 108, 98, 112, 98, 109, 104, 104, 112, 104, 103, 106, 99, 109, 103, 109, 108, 108, 103, 104, 111, 109, 106, 110, 108, 103, 105, 104, 105, 101, 103, 106, 105, 102, 109, 103, 108, 102, 102, 103, 108, 106, 101, 111, 122, 69, 69, 120, 115, 124, 111, 94, 112, 119, 68, 153, 105, 60, 60, 102, 102, 103, 109, 120, 80, 126, 99, 140, 142, 142, 119, 119, 104, 68, 112, 167, 91, 91, 113, 73, 81, 129, 123, 67, 67, 139, 132, 132, 89, 122, 95, 80, 119, 90, 133, 108, 116, 116, 97, 131, 56, 95, 126, 124, 110, 131, 118, 102, 102, 92, 70, 70, 124, 150, 103, 96, 76, 99, 123, 123, 110, 131, 103, 103, 111, 118, 56, 56, 106, 92, 95, 73, 135, 63, 168, 77, 140, 130, 130, 171, 89, 171, 171, 131, 91, 112, 103, 103, 90, 124, 102, 95, 124, 124, 54, 54, 123, 80, 124, 104, 101, 116, 116, 156, 132, 96, 80, 83, 83, 142, 101, 109, 115, 115, 106, 83, 152, 111, 68, 112, 83, 83, 78, 111, 89, 89, 77, 152, 136, 136, 105, 90, 102, 147, 78, 116, 87, 87, 157, 124, 135, 84, 137, 61, 133, 122, 87, 108, 110, 99, 139, 116, 151, 90, 112, 125, 125, 85, 133, 135, 97, 75, 76, 99, 89, 129, 91, 116, 91, 90, 122, 94, 94, 85, 109, 77, 116, 173, 163, 119, 83, 77, 113, 152, 89, 101, 128, 83, 83, 99, 99, 255, 62, 62, 137, 92, 255, 64, 246, 125, 125, 253, 255, 111, 106, 105, 99, 109, 101, 106, 104, 103, 101, 104, 106, 108, 104, 103, 104, 110, 102, 101, 105, 108, 111, 102, 105, 105, 108, 110, 96, 103, 110, 106, 105, 105, 102, 106, 101, 99, 106, 101, 105, 102, 109, 102, 98, 105, 106, 109, 104, 106, 109, 112, 108, 103, 105, 105, 101, 103, 102, 102, 103, 108, 102, 106, 106, 111, 111, 115, 102, 106, 103, 105, 108, 104, 105, 104, 109, 104, 104, 101, 101, 105, 108, 99, 106, 106, 101, 99, 110, 110, 108, 110, 111, 103, 99, 105, 105, 108, 103, 105, 105, 96, 105, 108, 108, 106, 109, 109, 106, 99, 108, 105, 123, 101, 111, 111, 96, 108, 109, 103, 110, 108, 102, 98, 104, 108, 101, 105, 106, 108, 108, 110, 103, 94, 111, 113, 84, 103, 113, 124, 112, 112, 108, 110, 111, 130, 104, 99, 101, 101, 102, 108, 103, 115, 104, 104, 104, 99, 105, 96, 97, 103, 103, 112, 109, 105, 99, 116, 116, 111, 91, 106, 96, 125, 109, 113, 116, 102, 112, 106, 109, 103, 110, 105, 96, 96, 106, 101, 102, 102, 108, 106, 106, 104, 99, 106, 92, 104, 108, 108, 125, 109, 105, 96, 89, 112, 95, 116, 104, 102, 124, 124, 104, 101, 101, 110, 106, 88, 101, 102, 115, 96, 117, 102, 99, 99, 99, 108, 110, 110, 113, 95, 96, 96, 118, 112, 109, 105, 98, 105, 97, 102, 109, 106, 109, 102, 110, 96, 111, 106, 118, 111, 94, 105, 102, 117, 117, 106, 110, 94, 113, 103, 109, 104, 110, 97, 111, 105, 99, 102, 102, 95, 108, 104, 119, 117, 109, 96, 99, 108, 96, 113, 113, 104, 105, 108, 108, 106, 111, 111, 105, 92, 117, 117, 117, 103, 108, 113, 113, 95, 106, 102, 102, 99, 102, 113, 104, 106, 106, 108, 125, 91, 109, 109, 89, 112, 101, 103, 92, 101, 101, 105, 123, 115, 115, 105, 101, 113, 102, 102, 110, 106, 117, 110, 99, 99, 105, 106, 97, 113, 105, 105, 109, 109, 97, 105, 111, 106, 104, 102, 108, 103, 106, 105, 115, 104, 101, 108, 101, 104, 103, 106, 110, 109, 105, 111, 104, 117, 103, 103, 103, 116, 97, 106, 101, 104, 109, 112, 108, 106, 103, 101, 106, 102, 105, 99, 111, 105, 106, 104, 116, 108, 94, 102, 109, 104, 110, 105, 108, 108, 105, 102, 111, 111, 105, 106, 106, 108, 111, 109, 109, 102, 109, 106, 110, 102, 116, 102, 109, 110, 101, 103, 105, 112, 98, 108, 95, 108, 101, 109, 109, 106, 111, 108, 104, 105, 105, 97, 108, 102, 95, 77, 73, 110, 135, 99, 101, 98, 54, 54, 88, 71, 82, 82, 39, 108, 108, 181, 151, 91, 159, 115, 130, 94, 103, 98, 64, 130, 62, 110, 122, 85, 95, 146, 110, 104, 104, 102, 105, 117, 64, 102, 98, 106, 88, 103, 104, 108, 149, 88, 85, 119, 116, 111, 116, 117, 104, 95, 89, 98, 103, 109, 124, 108, 99, 109, 116, 116, 112, 106, 110, 103, 97, 96, 94, 103, 102, 99, 117, 104, 101, 101, 110, 103, 102, 109, 112, 102, 85, 108, 102, 97, 129, 106, 99, 108, 104, 106, 81, 109, 120, 103, 101, 111, 112, 98, 90, 115, 103, 99, 102, 124, 98, 104, 111, 103, 108, 110, 108, 108, 110, 110, 105, 116, 92, 60, 111, 128, 103, 109, 104, 104, 120, 108, 108, 106, 102, 106, 105, 105, 98, 99, 104, 115, 112, 87, 110, 110, 101, 96, 115, 108, 120, 101, 101, 92, 104, 116, 91, 109, 109, 99, 99, 106, 124, 110, 110, 92, 116, 97, 102, 102, 115, 104, 104, 103, 109, 101, 99, 99, 102, 108, 108, 105, 98, 105, 105, 105, 102, 102, 108, 97, 104, 104, 104, 102, 103, 106, 104, 108, 103, 103, 105, 102, 102, 103, 104, 108, 102, 108, 102, 106, 103, 111, 103, 103, 105, 106, 105, 108, 102, 105, 104, 108, 105, 105, 105, 103, 101, 111, 111, 103, 111, 104, 102, 106, 106, 99, 109, 110, 103, 105, 105, 102, 108, 105, 105, 99, 112, 104, 103, 109, 105, 102, 101, 109, 108, 105, 106, 106, 112, 109, 109, 106, 108, 105, 108, 105, 101, 101, 105, 110, 106, 102, 104, 111, 106, 102, 103, 103, 108, 108, 105, 106, 103, 103, 106, 106, 105, 98, 111, 111, 111, 102, 105, 105, 101, 104, 103, 103, 105, 103, 103, 105, 98, 111, 111, 110, 111, 104, 104, 85, 103, 80, 80, 88, 132, 61, 135, 73, 87, 83, 135, 90, 137, 132, 46, 96, 149, 146, 146, 95, 129, 161, 116, 129, 78, 104, 133, 62, 53, 130, 130, 83, 53, 92, 92, 104, 104, 90, 89, 87, 139, 102, 130, 136, 82, 137, 128, 128, 96, 105, 90, 33, 140, 78, 175, 166, 69, 119, 154, 103, 94, 108, 109, 119, 150, 64, 112, 55, 94, 83, 87, 113, 133, 123, 122, 69, 154, 115, 120, 75, 75, 128, 58, 91, 98, 97, 120, 112, 112, 90, 137, 129, 129, 167, 47, 154, 73, 91, 125, 125, 99, 128, 105, 105, 115, 103, 67, 67, 126, 140, 94, 94, 102, 120, 83, 106, 116, 130, 130, 112, 90, 108, 108, 92, 125, 94, 94, 111, 88, 98, 56, 125, 108, 109, 109, 60, 108, 113, 102, 91, 118, 77, 77, 113, 138, 91, 154, 95, 66, 103, 94, 95, 95, 131, 131, 133, 95, 97, 74, 140, 118, 124, 99, 97, 96, 73, 117, 116, 105, 122, 90, 103, 105, 113, 105, 91, 108, 110, 105, 109, 108, 104, 105, 109, 112, 109, 104, 104, 104, 104, 106, 105, 105, 103, 103, 109, 104, 105, 101, 105, 103, 105, 106, 108, 105, 108, 104, 104, 113, 103, 113, 102, 101, 111, 104, 108, 106, 112, 102, 102, 102, 106, 105, 106, 104, 97, 110, 102, 111, 110, 106, 103, 110, 103, 106, 110, 106, 105, 103, 103, 104, 103, 103, 110, 105, 101, 101, 109, 106, 106, 101, 113, 103, 103, 110, 110, 108, 109, 103, 103, 111, 105, 101, 103, 106, 108, 105, 106, 104, 102, 108, 105, 104, 102, 103, 106, 109, 106, 105, 109, 103, 106, 106, 103, 104, 106, 106, 106, 110, 102, 108, 97, 110, 99, 96, 111, 120, 108, 113, 97, 97, 119, 119, 109, 110, 90, 98, 116, 116, 110, 92, 110, 111, 104, 92, 115, 105, 106, 105, 101, 118, 98, 128, 111, 109, 96, 103, 110, 104, 112, 98, 98, 112, 102, 95, 95, 106, 117, 109, 82, 101, 105, 109, 109, 102, 102, 112, 105, 112, 95, 106, 110, 111, 92, 113, 109, 109, 99, 110, 115, 97, 95, 116, 112, 104, 111, 104, 112, 112, 102, 104, 102, 102, 116, 98, 98, 115, 133, 101, 105, 92, 103, 102, 102, 105, 105, 118, 108, 101, 112, 105, 104, 102, 113, 101, 92, 92, 117, 113, 113, 92, 104, 104, 95, 104, 104, 105, 105, 112, 116, 98, 108, 108, 97, 113, 99, 104, 110, 111, 111, 101, 97, 105, 101, 101, 109, 101, 111, 106, 96, 109, 102, 110, 102, 111, 111, 117, 98, 109, 104, 104, 104, 103, 105, 103, 105, 115, 109, 99, 99, 90, 96, 118, 103, 105, 105, 98, 97, 97, 110, 105, 111, 99, 115, 111, 109, 106, 99, 103, 105, 103, 104, 105, 111, 104, 104, 103, 105, 112, 112, 112, 109, 103, 105, 106, 94, 112, 106, 104, 101, 111, 106, 109, 112, 101, 104, 104, 104, 108, 105, 102, 102, 104, 102, 110, 99, 110, 110, 111, 108, 99, 97, 111, 108, 111, 105, 105, 106, 109, 112, 105, 109, 104, 106, 97, 98, 103, 105, 103, 106, 108, 117, 105, 102, 103, 101, 106, 104, 103, 103, 104, 96, 103, 103, 109, 102, 97, 104, 98, 104, 104, 110, 106, 106, 106, 105, 105, 90, 90, 112, 106, 106, 106, 103, 105, 108, 110, 102, 98, 104, 104, 108, 115, 109, 101, 113, 115, 95, 113, 105, 98, 109, 103, 112, 102, 102, 106, 105, 106, 106, 108, 106, 106, 105, 108, 103, 106, 101, 95, 102, 102, 113, 105, 104, 105, 105, 104, 112, 102, 99, 108, 103, 106, 109, 102, 116, 116, 108, 102, 111, 105, 108, 102, 109, 97, 110, 108, 109, 98, 99, 109, 98, 106, 106, 98, 98, 109, 106, 106, 105, 116, 97, 101, 101, 105, 104, 117, 96, 113, 105, 105, 118, 101, 111, 111, 112, 109, 101, 99, 103, 101, 115, 103, 98, 98, 96, 96, 110, 108, 104, 106, 108, 101, 104, 104, 106, 106, 95, 95, 104, 105, 112, 112, 104, 98, 104, 96, 109, 108, 102, 106, 101, 112, 103, 103, 110, 109, 115, 110, 110, 106, 106, 108, 99, 115, 102, 112, 102, 108, 109, 109, 104, 102, 101, 101, 110, 106, 105, 112, 103, 101, 106, 104, 104, 103, 110, 109, 109, 101, 108, 109, 109, 96, 104, 106, 105, 108, 108, 108, 103, 105, 104, 98, 112, 97, 111, 102, 99, 111, 94, 130, 130, 89, 129, 99, 109, 106, 98, 98, 66, 90, 126, 48, 77, 150, 56, 56, 124, 111, 64, 30, 119, 126, 99, 105, 129, 91, 104, 129, 101, 145, 84, 77, 125, 73, 92, 131, 110, 102, 87, 133, 123, 123, 123, 133, 82, 77, 77, 94, 156, 89, 83, 98, 66, 126, 120, 122, 116, 111, 101, 88, 150, 142, 95, 105, 131, 130, 117, 90, 81, 81, 138, 105, 84, 84, 102, 113, 106, 102, 105, 92, 132, 106, 131, 98, 98, 91, 91, 82, 102, 109, 89, 104, 119, 124, 108, 94, 101, 108, 101, 108, 119, 108, 103, 123, 95, 74, 69, 130, 123, 98, 109, 95, 119, 96, 109, 91, 124, 109, 144, 113, 112, 84, 99, 116, 125, 81, 97, 98, 146, 109, 109, 116, 105, 99, 135, 110, 124, 117, 47, 101, 113, 101, 62, 110, 136, 101, 101, 125, 112, 112, 116, 123, 85, 88, 116, 110, 108, 94, 111, 84, 118, 118, 112, 73, 108, 108, 109, 117, 92, 152, 115, 101, 97, 102, 106, 98, 105, 105, 105, 115, 106, 103, 103, 102, 103, 104, 101, 101, 103, 104, 105, 105, 106, 103, 110, 105, 105, 104, 104, 99, 112, 109, 109, 106, 104, 104, 106, 104, 101, 101, 104, 103, 110, 108, 108, 105, 103, 108, 106, 106, 102, 102, 111, 106, 104, 103, 104, 103, 105, 105, 110, 105, 106, 102, 102, 106, 106, 99, 106, 110, 106, 106, 108, 106, 111, 104, 103, 102, 102, 108, 101, 106, 108, 105, 105, 106, 106, 102, 108, 102, 106, 104, 104, 105, 102, 99, 109, 105, 106, 106, 105, 105, 108, 108, 106, 106, 106, 106, 108, 99, 103, 105, 105, 104, 99, 111, 98, 97, 109, 106, 104, 103, 102, 108, 106, 105, 102, 102, 98, 109, 101, 101, 111, 111, 104, 104, 110, 110, 98, 102, 104, 112, 112, 109, 116, 99, 102, 109, 78, 103, 102, 110, 96, 96, 99, 129, 108, 102, 102, 106, 90, 102, 106, 99, 99, 118, 120, 113, 113, 104, 101, 118, 117, 92, 104, 108, 95, 104, 118, 118, 104, 115, 117, 110, 102, 102, 85, 103, 120, 112, 97, 112, 83, 126, 80, 122, 95, 131, 94, 92, 98, 102, 101, 98, 113, 101, 83, 120, 120, 92, 110, 88, 111, 98, 112, 99, 115, 118, 105, 103, 98, 111, 111, 109, 96, 101, 102, 96, 104, 110, 115, 88, 88, 96, 96, 96, 96, 105, 104, 109, 109, 98, 108, 106, 113, 119, 105, 105, 111, 96, 96, 110, 101, 95, 116, 116, 119, 111, 91, 95, 112, 97, 110, 108, 122, 115, 92, 118, 95, 97, 113, 108, 109, 106, 106, 101, 105, 102, 98, 106, 117, 118, 110, 110, 97, 91, 118, 118, 112, 115, 117, 110, 97, 108, 74, 111, 116, 102, 102, 119, 110, 104, 106, 87, 105, 101, 109, 99, 109, 106, 106, 96, 116, 108, 108, 106, 112, 104, 91, 103, 106, 110, 109, 101, 108, 108, 101, 113, 94, 118, 95, 103, 118, 99, 105, 105, 108, 102, 102, 108, 104, 106, 106, 101, 105, 101, 109, 102, 105, 108, 105, 99, 110, 106, 103, 109, 106, 106, 102, 109, 109, 105, 110, 109, 108, 101, 103, 102, 104, 113, 108, 108, 104, 97, 104, 92, 113, 106, 111, 108, 108, 102, 101, 99, 99, 106, 106, 104, 111, 101, 102, 110, 101, 103, 106, 103, 104, 110, 106, 110, 110, 105, 103, 106, 104, 105, 108, 108, 108, 106, 105, 105, 101, 101, 106, 103, 101, 106, 104, 111, 103, 111, 111, 102, 108, 94, 102, 113, 104, 106, 111, 104, 105, 108, 104, 104, 106, 104, 102, 103, 102, 103, 108, 102, 102, 109, 99, 99, 113, 96, 97, 152, 91, 122, 81, 143, 89, 111, 87, 87, 149, 55, 126, 95, 85, 40, 101, 37, 133, 118, 118, 144, 94, 97, 103, 136, 83, 139, 106, 156, 70, 126, 94, 119, 117, 122, 95, 123, 84, 132, 117, 97, 101, 104, 94, 99, 118, 115, 116, 123, 98, 92, 81, 111, 109, 109, 126, 115, 20, 125, 109, 117, 125, 131, 120, 95, 105, 94, 95, 110, 91, 123, 91, 85, 112, 97, 95, 102, 126, 108, 96, 105, 123, 108, 62, 139, 74, 96, 94, 146, 116, 96, 96, 108, 133, 111, 106, 96, 123, 117, 103, 85, 122, 122, 90, 99, 120, 108, 113, 109, 83, 109, 74, 123, 123, 110, 122, 103, 109, 92, 111, 109, 102, 89, 131, 71, 99, 124, 104, 104, 105, 89, 89, 123, 102, 101, 109, 87, 109, 109, 91, 123, 103, 92, 135, 135, 123, 123, 99, 83, 101, 78, 91, 98, 101, 115, 115, 113, 113, 109, 84, 138, 128, 119, 89, 106, 108, 108, 110, 110, 98, 95, 113, 108, 104, 104, 108, 102, 106, 105, 108, 103, 103, 104, 104, 105, 103, 104, 109, 103, 106, 99, 106, 106, 110, 102, 109, 101, 95, 108, 99, 110, 108, 101, 106, 103, 113, 108, 104, 103, 103, 105, 110, 99, 106, 109, 109, 106, 98, 98, 110, 92, 92, 99, 105, 105, 113, 108, 106, 103, 95, 105, 108, 101, 109, 109, 103, 103, 110, 105, 108, 104, 106, 98, 108, 108, 109, 103, 109, 105, 105, 108, 108, 103, 106, 102, 105, 103, 106, 106, 104, 104, 104, 108, 106, 106, 102, 105, 106, 111, 106, 106, 91, 105, 105, 104, 101, 108, 109, 94, 110, 106, 109, 105, 103, 106, 104, 104, 106, 106, 105, 109, 105, 106, 108, 105, 103, 104, 106, 102, 106, 110, 113, 94, 94, 124, 111, 90, 90, 129, 26, 112, 130, 209, 88, 110, 95, 95, 29, 81, 69, 214, 80, 80, 94, 124, 0, 0, 125, 113, 28, 147, 104, 200, 101, 94, 131, 89, 89, 131, 160, 108, 96, 61, 92, 73, 73, 103, 103, 91, 89, 87, 101, 164, 108, 122, 36, 140, 113, 128, 80, 60, 92, 96, 120, 104, 92, 92, 111, 111, 132, 85, 103, 108, 81, 112, 124, 104, 110, 133, 133, 136, 85, 113, 90, 68, 68, 95, 142, 119, 111, 94, 77, 125, 106, 97, 102, 111, 111, 112, 113, 115, 115, 68, 102, 95, 95, 115, 120, 128, 83, 88, 96, 126, 96, 96, 130, 132, 95, 87, 110, 103, 105, 101, 103, 101, 106, 153, 98, 87, 108, 69, 103, 102, 71, 156, 101, 99, 66, 105, 96, 105, 99, 109, 130, 130, 109, 125, 104, 56, 129, 109, 99, 130, 101, 77, 126, 108, 124, 124, 92, 74, 105, 105, 99, 104, 106, 105, 97, 95, 110, 104, 123, 115, 123, 123, 139, 111, 75, 92, 91, 104, 99, 84, 123, 106, 118, 99, 102, 123, 73, 92, 124, 113, 88, 112, 113, 111, 110, 101, 109, 104, 106, 105, 109, 109, 110, 110, 102, 105, 109, 105, 105, 109, 106, 97, 105, 105, 105, 101, 103, 106, 108, 104, 102, 106, 109, 106, 109, 106, 106, 110, 99, 102, 102, 103, 109, 98, 104, 103, 116, 96, 104, 105, 104, 103, 117, 106, 105, 105, 103, 91, 118, 118, 105, 102, 102, 108, 105, 104, 110, 110, 106, 99, 99, 105, 110, 104, 104, 102, 109, 102, 101, 104, 108, 110, 106, 104, 109, 113, 94, 105, 102, 116, 116, 106, 101, 101, 110, 108, 101, 108, 104, 104, 98, 112, 112, 96, 98, 110, 110, 109, 108, 102, 103, 106, 106, 103, 105, 103, 104, 113, 103, 102, 96, 112, 118, 94, 106, 106, 109, 104, 106, 104, 116, 105, 101, 111, 115, 104, 94, 88, 88, 112, 115, 113, 113, 102, 99, 89, 95, 95, 92, 118, 118, 105, 83, 109, 91, 91, 104, 115, 106, 106, 113, 102, 94, 96, 122, 85, 85, 105, 98, 123, 105, 112, 103, 97, 97, 112, 91, 101, 101, 105, 110, 106, 105, 125, 89, 130, 104, 106, 103, 103, 103, 102, 101, 101, 105, 98, 106, 103, 116, 104, 111, 92, 113, 106, 111, 83, 113, 106, 84, 124, 124, 112, 112, 110, 101, 123, 109, 99, 105, 122, 85, 68, 103, 103, 115, 104, 106, 122, 98, 109, 94, 109, 103, 96, 99, 105, 105, 115, 98, 70, 118, 108, 123, 108, 105, 105, 105, 94, 108, 106, 102, 94, 92, 110, 102, 104, 106, 111, 113, 113, 92, 92, 97, 97, 118, 101, 94, 94, 98, 116, 97, 115, 115, 101, 101, 89, 119, 94, 113, 106, 96, 103, 104, 96, 111, 101, 88, 99, 110, 113, 104, 92, 97, 104, 108, 99, 81, 110, 108, 101, 105, 115, 101, 101, 118, 118, 97, 110, 102, 109, 99, 102, 105, 102, 102, 101, 104, 108, 105, 105, 110, 89, 113, 103, 103, 103, 106, 104, 108, 108, 106, 106, 102, 103, 103, 104, 106, 105, 109, 109, 109, 103, 98, 104, 104, 104, 105, 109, 109, 103, 103, 109, 109, 97, 116, 94, 105, 110, 109, 111, 103, 104, 104, 99, 99, 110, 101, 101, 105, 105, 111, 106, 113, 109 }


no. 3511 point