{ 108, 110, 109, 108, 108, 109, 112, 110, 110, 109, 107, 110, 109, 112, 111, 107, 108, 110, 111, 113, 112, 111, 108, 110, 113, 113, 112, 112, 110, 113, 113, 114, 113, 110, 108, 109, 112, 112, 111, 108, 108, 109, 110, 112, 110, 109, 108, 109, 112, 113, 113, 110, 109, 108, 113, 114, 110, 110, 108, 108, 111, 112, 111, 108, 110, 111, 114, 116, 113, 109, 110, 112, 113, 116, 114, 112, 108, 110, 113, 116, 115, 111, 112, 113, 117, 118, 117, 116, 114, 115, 119, 120, 119, 116, 116, 116, 118, 116, 117, 114, 113, 113, 116, 117, 117, 115, 114, 115, 118, 117, 116, 116, 114, 116, 118, 119, 117, 114, 114, 116, 115, 117, 116, 115, 114, 115, 118, 120, 117, 114, 112, 118, 119, 119, 117, 117, 114, 119, 120, 120, 119, 112, 115, 114, 118, 117, 118, 116, 115, 115, 118, 119, 120, 117, 117, 118, 118, 121, 118, 118, 113, 114, 117, 119, 114, 111, 114, 117, 118, 121, 117, 117, 117, 120, 123, 123, 122, 123, 128, 134, 139, 145, 147, 147, 147, 147, 148, 145, 145, 140, 135, 132, 124, 110, 99, 93, 89, 88, 86, 85, 83, 82, 80, 85, 85, 87, 85, 83, 82, 85, 86, 84, 78, 75, 71, 71, 75, 77, 79, 77, 77, 74, 75, 75, 72, 70, 70, 75, 76, 80, 80, 79, 83, 85, 96, 101, 103, 103, 108, 116, 119, 121, 124, 125, 128, 130, 133, 132, 134, 134, 134, 136, 140, 140, 141, 142, 142, 145, 149, 150, 149, 150, 149, 152, 155, 155, 157, 156, 158, 161, 164, 165, 163, 163, 165, 167, 167, 172, 171, 170, 169, 173, 175, 178, 177, 176, 177, 180, 180, 181, 182, 181, 180, 183, 185, 186, 182, 185, 182, 185, 188, 189, 186, 185, 185, 184, 184, 187, 184, 178, 180, 180, 183, 185, 184, 182, 181, 181, 185, 185, 183, 181, 179, 180, 181, 182, 179, 176, 173, 173, 177, 176, 174, 169, 169, 169, 170, 170, 170, 164, 164, 162, 165, 165, 161, 158, 156, 156, 157, 154, 154, 148, 147, 147, 147, 147, 145, 140, 140, 140, 140, 138, 136, 134, 133, 135, 137, 137, 131, 131, 129, 132, 130, 128, 124, 121, 121, 121, 121, 122, 118, 117, 116, 121, 124, 122, 122, 123, 121, 126, 128, 123, 121, 119, 117, 116, 118, 118, 116, 112, 106, 109, 114, 115, 110, 108, 107, 112, 119, 119, 113, 108, 108, 109, 112, 111, 109, 107, 106, 108, 107, 108, 108, 105, 98, 99, 104, 107, 107, 101, 96, 98, 102, 103, 100, 95, 93, 96, 104, 105, 97, 93, 90, 93, 96, 98, 100, 97, 90, 90, 91, 94, 98, 97, 98, 92, 92, 96, 96, 95, 93, 97, 102, 98, 93, 90, 90, 90, 88, 90, 88, 85, 85, 88, 91, 90, 88, 90, 93, 87, 85, 87, 91, 94, 95, 95, 93, 86, 82, 81, 88, 96, 96, 87, 79, 79, 84, 91, 95, 94, 88, 84, 85, 90, 93, 92, 87, 77, 72, 83, 95, 98, 92, 83, 80, 83, 87, 88, 88, 86, 83, 81, 81, 88, 91, 90, 85, 82, 87, 93, 94, 86, 84, 88, 90, 90, 83, 81, 85, 95, 93, 90, 87, 84, 85, 83, 88, 94, 94, 92, 87, 89, 87, 89, 88, 89, 91, 90, 92, 94, 88, 84, 89, 96, 100, 96, 92, 88, 85, 90, 97, 103, 100, 92, 83, 84, 96, 100, 98, 94, 90, 92, 95, 96, 96, 96, 100, 100, 96, 94, 93, 97, 103, 101, 98, 96, 98, 99, 102, 104, 101, 100, 96, 94, 96, 101, 108, 109, 105, 102, 101, 101, 105, 101, 98, 99, 99, 102, 106, 106, 103, 99, 99, 107, 108, 108, 108, 102, 101, 101, 104, 111, 115, 114, 106, 101, 107, 113, 117, 113, 103, 101, 105, 112, 115, 113, 108, 104, 108, 112, 109, 104, 105, 111, 117, 117, 110, 100, 101, 109, 113, 110, 108, 111, 111, 109, 109, 107, 108, 112, 115, 119, 118, 113, 107, 106, 108, 110, 112, 112, 108, 106, 104, 108, 118, 125, 120, 105, 101, 106, 116, 118, 117, 113, 110, 110, 113, 109, 111, 108, 111, 115, 113, 112, 112, 112, 109, 108, 110, 110, 108, 108, 111, 117, 120, 117, 108, 107, 108, 113, 115, 116, 119, 117, 110, 107, 108, 111, 112, 113, 115, 116, 119, 118, 113, 110, 107, 108, 111, 115, 118, 113, 108, 106, 107, 110, 111, 110, 110, 112, 115, 116, 115, 111, 108, 106, 110, 109, 110, 111, 111, 112, 111, 110, 109, 108, 105, 108, 110, 113, 114, 112, 109, 108, 110, 111, 111, 106, 106, 106, 108, 109, 109, 108, 104, 105, 107, 106, 108, 104, 105, 106, 104, 103, 99, 96, 96, 98, 100, 102, 100, 95, 92, 94, 96, 94, 92, 89, 89, 93, 93, 94, 91, 88, 86, 88, 91, 90, 91, 85, 85, 87, 85, 86, 83, 83, 82, 86, 87, 85, 84, 83, 83, 86, 86, 86, 84, 82, 83, 85, 89, 83, 82, 81, 79, 80, 84, 84, 83, 83, 83, 83, 87, 88, 88, 84, 83, 87, 88, 88, 87, 83, 84, 89, 87, 89, 87, 85, 86, 89, 87, 86, 85, 83, 86, 86, 89, 88, 86, 86, 85, 87, 90, 87, 87, 83, 86, 84, 91, 90, 88, 85, 85, 88, 90, 92, 91, 90, 86, 91, 93, 91, 89, 89, 87, 89, 91, 92, 90, 89, 88, 92, 93, 90, 88, 88, 87, 91, 95, 94, 93, 90, 87, 90, 92, 92, 91, 89, 89, 90, 91, 91, 89, 88, 89, 90, 91, 91, 88, 90, 89, 91, 92, 91, 90, 88, 89, 92, 94, 96, 92, 88, 87, 89, 91, 89, 88, 88, 87, 91, 91, 89, 90, 89, 89, 91, 92, 92, 90, 89, 87, 88, 91, 91, 89, 86, 85, 87, 93, 91, 88, 88, 89, 92, 91, 94, 93, 88, 86, 88, 93, 96, 93, 92, 91, 93, 96, 97, 99, 101, 108, 118, 124, 124, 125, 122, 122, 121, 117, 114, 109, 99, 83, 71, 63, 57, 51, 44, 40, 39, 42, 47, 47, 46, 45, 46, 50, 49, 46, 42, 40, 39, 40, 39, 37, 38, 43, 50, 54, 51, 48, 45, 39, 42, 42, 43, 45, 45, 45, 48, 56, 57, 63, 64, 67, 73, 82, 89, 92, 96, 96, 105, 108, 109, 108, 109, 108, 108, 109, 108, 108, 108, 107, 111, 112, 115, 113, 110, 108, 108, 113, 117, 119, 120, 119, 121, 122, 125, 123, 125, 123, 125, 128, 134, 135, 133, 131, 129, 131, 131, 127, 132, 136, 142, 145, 141, 134, 131, 130, 133, 140, 140, 144, 140, 138, 140, 138, 138, 139, 139, 138, 143, 139, 135, 134, 137, 144, 145, 141, 135, 134, 135, 136, 136, 136, 136, 135, 139, 142, 146, 147, 140, 132, 123, 121, 125, 127, 126, 122, 121, 122, 125, 127, 126, 120, 117, 117, 115, 121, 114, 107, 106, 106, 109, 109, 108, 104, 103, 103, 105, 105, 99, 92, 91, 93, 96, 97, 95, 87, 82, 83, 83, 88, 86, 85, 85, 84, 82, 82, 81, 76, 70, 68, 69, 79, 83, 81, 75, 74, 79, 83, 83, 75, 68, 65, 67, 70, 72, 71, 74, 78, 72, 67, 65, 66, 70, 67, 70, 71, 70, 64, 65, 70, 73, 72, 67, 66, 65, 64, 64, 62, 64, 68, 65, 64, 65, 65, 62, 57, 56, 55, 55, 61, 66, 64, 60, 57, 58, 59, 63, 61, 59, 57, 60, 61, 57, 57, 57, 64, 67, 70, 70, 63, 53, 52, 57, 68, 68, 62, 55, 62, 70, 69, 63, 58, 57, 65, 78, 75, 65, 57, 58, 64, 68, 67, 64, 63, 61, 61, 66, 69, 70, 70, 68, 60, 60, 67, 67, 68, 61, 65, 69, 67, 65, 67, 64, 60, 59, 65, 69, 67, 67, 63, 60, 62, 65, 61, 57, 58, 66, 73, 72, 65, 62, 70, 69, 66, 62, 63, 66, 67, 67, 66, 69, 66, 60, 59, 57, 58, 64, 74, 78, 73, 67, 68, 70, 71, 68, 64, 62, 68, 66, 61, 60, 61, 68, 70, 73, 73, 70, 62, 61, 62, 70, 74, 73, 66, 61, 69, 71, 70, 69, 68, 67, 66, 63, 69, 73, 74, 70, 64, 61, 57, 58, 67, 75, 73, 66, 61, 66, 70, 71, 68, 66, 65, 66, 65, 63, 62, 67, 69, 70, 67, 70, 74, 74, 70, 61, 58, 62, 70, 70, 64, 58, 60, 64, 65, 68, 68, 64, 66, 64, 61, 61, 60, 59, 62, 69, 68, 69, 65, 63, 61, 62, 67, 70, 67, 63, 61, 65, 72, 76, 72, 62, 57, 62, 67, 68, 62, 57, 56, 65, 70, 65, 65, 66, 69, 72, 76, 70, 74, 70, 67, 67, 68, 68, 64, 64, 65, 66, 66, 67, 68, 72, 73, 75, 75, 69, 67, 68, 66, 61, 64, 70, 70, 67, 62, 61, 58, 58, 57, 63, 69, 70, 70, 67, 63, 65, 66, 63, 59, 62, 63, 64, 63, 66, 68, 69, 66, 62, 61, 63, 63, 61, 64, 66, 70, 72, 70, 65, 62, 60, 63, 67, 69, 68, 65, 67, 70, 71, 70, 67, 69, 66, 60, 63, 66, 66, 63, 65, 69, 70, 71, 70, 66, 68, 69, 72, 73, 72, 70, 65, 65, 70, 72, 72, 71, 67, 67, 69, 72, 71, 70, 69, 68, 69, 69, 71, 70, 71, 72, 73, 74, 73, 70, 67, 68, 71, 74, 70, 71, 73, 76, 77, 78, 75, 76, 75, 75, 77, 76, 75, 74, 71, 74, 81, 80, 79, 72, 71, 72, 74, 75, 75, 76, 74, 76, 78, 79, 80, 78, 77, 76, 81, 83, 79, 77, 72, 76, 77, 79, 81, 77, 73, 74, 76, 78, 77, 75, 72, 74, 77, 79, 79, 77, 75, 73, 78, 80, 79, 77, 76, 75, 75, 76, 77, 79, 76, 78, 81, 81, 79, 78, 77, 79, 79, 79, 79, 77, 76, 76, 79, 79, 75, 78, 77, 78, 80, 82, 79, 80, 77, 78, 81, 83, 79, 78, 80, 80, 82, 82, 82, 79, 77, 79, 79, 81, 79, 81, 81, 82, 84, 86, 86, 86, 84, 83, 85, 87, 87, 84, 81, 81, 85, 85, 86, 83, 81, 83, 85, 84, 85, 83, 80, 83, 85, 86, 84, 84, 83, 83, 85, 89, 88, 85, 81, 84, 86, 86, 83, 83, 83, 83, 85, 83, 87, 84, 81, 84, 87, 87, 85, 84, 83, 81, 84, 87, 86, 84, 81, 82, 84, 85, 82, 84, 82, 83, 83, 84, 85, 83, 81, 82, 83, 86, 83, 83, 83, 80, 84, 85, 85, 83, 80, 83, 84, 86, 84, 83, 83, 81, 86, 86, 86, 83, 84, 84, 86, 85, 86, 83, 81, 83, 85, 88, 87, 85, 84, 83, 86, 87, 86, 83, 83, 84, 86, 88, 87, 85, 81, 83, 84, 87, 85, 84, 83, 85, 84, 89, 85, 85, 83, 85, 87, 87, 86, 84, 83, 85, 89, 90, 85, 84, 83, 86, 87, 90, 90, 89, 85, 87, 86, 92, 92, 90, 87, 90, 88, 91, 90, 87, 85, 84, 86, 89, 91, 88, 86, 88, 92, 96, 99, 100, 105, 112, 123, 133, 134, 132, 126, 124, 123, 119, 112, 107, 107, 110, 116, 121, 120, 116, 111, 110, 113, 116, 117, 116, 111, 107, 100, 96, 93, 90, 87, 85, 83, 80, 77, 72, 70, 68, 68, 67, 65, 56, 50, 49, 48, 51, 52, 51, 49, 49, 54, 57, 59, 63, 68, 75, 80, 84, 87, 90, 91, 90, 93, 96, 94, 94, 93, 96, 96, 96, 98, 96, 96, 96, 98, 98, 98, 96, 96, 99, 104, 107, 108, 107, 107, 108, 110, 113, 115, 114, 114, 116, 119, 123, 123, 121, 118, 121, 123, 129, 131, 129, 131, 131, 135, 137, 136, 135, 136, 136, 140, 140, 142, 140, 138, 142, 143, 144, 143, 142, 142, 143, 145, 148, 147, 145, 143, 145, 144, 143, 146, 145, 141, 143, 143, 144, 140, 140, 137, 135, 136, 138, 136, 134, 132, 133, 134, 134, 132, 130, 128, 126, 129, 128, 125, 123, 118, 117, 118, 116, 114, 108, 110, 111, 111, 112, 111, 107, 106, 104, 106, 108, 105, 100, 99, 96, 101, 100, 101, 95, 95, 94, 96, 96, 95, 89, 92, 90, 92, 92, 90, 88, 88, 88, 89, 90, 89, 85, 84, 84, 83, 87, 87, 83, 80, 83, 83, 86, 86, 83, 83, 85, 86, 86, 86, 85, 81, 82, 86, 86, 85, 82, 78, 79, 81, 82, 83, 79, 81, 83, 82, 83, 83, 82, 81, 82, 82, 83, 84, 81, 80, 80, 79, 82, 79, 78, 78, 77, 81, 80, 80, 80, 79, 80, 82, 81, 79, 79, 75, 79, 81, 80, 77, 77, 76, 80, 82, 81, 80, 79, 77, 79, 81, 82, 80, 79, 78, 77, 80, 81, 78, 75, 76, 76, 78, 78, 76, 74, 75, 78, 79, 82, 81, 78, 79, 80, 81, 79, 80, 76, 75, 77, 79, 78, 74, 74, 75, 74, 78, 78, 78, 75, 76, 76, 78, 76, 76, 76, 77, 73, 74, 77, 76, 75, 73, 75, 76, 76, 75, 74, 73, 74, 76, 75, 75, 74, 72, 73, 76, 79, 78, 74, 77, 76, 77, 78, 77, 75, 73, 73, 75, 77, 77, 74, 76, 77, 77, 78, 77, 76, 76, 75, 77, 78, 76, 72, 70, 71, 72, 70, 70, 68, 67, 68, 70, 70, 70, 67, 67, 67, 70, 72, 72, 70, 67, 68, 74, 72, 72, 70, 70, 71, 72, 73, 72, 70, 70, 70, 73, 74, 73, 70, 68, 70, 70, 71, 70, 70, 67, 68, 69, 70, 70, 70, 70, 71, 74, 74, 73, 69, 66, 66, 70, 73, 72, 72, 72, 73, 77, 76, 75, 75, 75, 77, 80, 82, 81, 81, 79, 81, 84, 83, 84, 83, 81, 82, 85, 85, 81, 83, 81, 81, 83, 84, 84, 80, 81, 80, 83, 84, 82, 82, 81, 82, 85, 85, 83, 83, 80, 81, 81, 82, 78, 79, 79, 80, 81, 84, 81, 81, 78, 80, 83, 83, 83, 80, 80, 82, 81, 83, 81, 79, 79, 79, 80, 83, 83, 83, 82, 83, 83, 83, 82, 81, 81, 83, 83, 84, 84, 81, 80, 82, 83, 83, 83, 83, 82, 81, 85, 84, 85, 83, 83, 82, 83, 84, 83, 83, 80, 83, 85, 85, 83, 84, 81, 84, 85, 85, 84, 83, 83, 83, 85, 87, 87, 84, 85, 88, 93, 96, 96, 97, 99, 98, 105, 108, 111, 112, 118, 126, 135, 144, 152, 163, 174, 187, 198, 207, 211, 215, 218, 223, 230, 240, 248, 249, 255, 253, 254, 250, 244, 236, 233, 226, 217, 206, 191, 174, 152, 138, 122, 111, 100, 93, 89, 87, 84, 86, 94, 96, 97, 100, 104, 99, 92, 84, 78, 72, 69, 63, 60, 60, 57, 55, 57, 57, 52, 46, 40, 35, 32, 31, 28, 23, 23, 24, 24, 25, 22, 21, 19, 22, 19, 21, 23, 22, 21, 20, 24, 21, 20, 18, 19, 20, 21, 21, 24, 23, 23, 26, 26, 28, 25, 24, 26, 28, 29, 30, 30, 31, 29, 32, 34, 37, 35, 35, 33, 39, 42, 45, 44, 45, 44, 48, 50, 51, 50, 50, 50, 53, 56, 57, 57, 57, 56, 59, 63, 61, 63, 62, 63, 65, 67, 69, 69, 65, 64, 66, 70, 72, 69, 65, 68, 70, 71, 71, 70, 68, 69, 69, 71, 72, 69, 68, 65, 67, 69, 70, 68, 63, 62, 65, 66, 66, 65, 61, 62, 63, 65, 67, 67, 64, 63, 65, 69, 70, 68, 70, 67, 70, 73, 73, 72, 70, 71, 75, 77, 78, 82, 81, 80, 85, 88, 88, 87, 83, 84, 83, 84, 83, 78, 76, 71, 70, 71, 69, 65, 61, 61, 59, 60, 63, 60, 58, 57, 58, 61, 60, 58, 58, 56, 57, 60, 62, 60, 57, 57, 59, 61, 57, 59, 60, 57, 59, 63, 65, 65, 63, 61, 64, 67, 65, 65, 64, 59, 63, 64, 67, 66, 64, 62, 65, 65, 67, 67, 62, 64, 65, 66, 68, 67, 65, 65, 68, 69, 70, 67, 65, 64, 67, 68, 68, 67, 64, 65, 67, 70, 70, 69, 67, 65, 68, 67, 68, 69, 67, 65, 69, 70, 70, 68, 64, 64, 65, 65, 70, 69, 66, 66, 69, 69, 70, 68, 66, 64, 63, 69, 69, 67, 67, 64, 64, 67, 69, 68, 66, 65, 67, 68, 70, 70, 69, 69, 69, 71, 70, 70, 67, 67, 65, 69, 66, 65, 66, 65, 65, 69, 69, 69, 68, 68, 70, 70, 70, 70, 68, 68, 67, 70, 71, 69, 65, 65, 67, 70, 71, 70, 68, 70, 70, 72, 74, 72, 70, 67, 70, 71, 73, 72, 70, 70, 70, 70, 71, 70, 67, 66, 67, 72, 73, 72, 70, 69, 71, 74, 72, 72, 70, 70, 72, 73, 74, 70, 70, 70, 70, 72, 74, 72, 70, 68, 70, 71, 72, 71, 71, 70, 70, 73, 73, 70, 70, 70, 69, 70, 73, 71, 70, 70, 71, 73, 73, 75, 70, 70, 70, 74, 73, 73, 70, 73, 76, 80, 79, 82, 83, 83, 87, 92, 96, 100, 102, 108, 117, 128, 135, 147, 158, 169, 183, 194, 202, 205, 208, 210, 214, 221, 234, 242, 245, 245, 242, 241, 236, 229, 221, 216, 204, 188, 177, 158, 140, 120, 108, 98, 91, 83, 80, 78, 82, 88, 96, 99, 95, 91, 89, 83, 77, 66, 58, 54, 54, 54, 49, 49, 45, 44, 37, 38, 33, 27, 20, 18, 17, 15, 16, 16, 14, 14, 12, 14, 11, 13, 10, 11, 12, 15, 15, 13, 11, 11, 13, 14, 14, 13, 13, 14, 16, 17, 16, 18, 11, 15, 17, 20, 19, 21, 19, 21, 24, 27, 29, 30, 25, 27, 30, 34, 33, 34, 34, 35, 36, 37, 42, 42, 41, 43, 46, 49, 53, 52, 50, 51, 57, 57, 58, 57, 57, 57, 59, 62, 63, 61, 60, 60, 62, 62, 62, 66, 64, 63, 62, 69, 68, 66, 64, 63, 65, 63, 67, 64, 60, 60, 62, 61, 62, 61, 59, 58, 58, 61, 63, 62, 60, 58, 60, 61, 62, 60, 58, 57, 58, 60, 59, 57, 57, 57, 56, 56, 52, 54, 53, 50, 52, 57, 57, 57, 57, 56, 57, 59, 60, 57, 54, 56, 55, 57, 57, 52, 52, 52, 54, 56, 55, 53, 53, 52, 51, 53, 54, 50, 49, 48, 50, 51, 52, 49, 48, 45, 47, 46, 50, 46, 47, 44, 49, 50, 52, 49, 48, 50, 50, 50, 51, 48, 48, 47, 48, 49, 51, 46, 46, 47, 47, 45, 47, 46, 47, 44, 47, 49, 50, 47, 46, 47, 48, 49, 50, 48, 47, 45, 45, 48, 50, 48, 46, 46, 50, 49, 50, 50, 48, 47, 48, 54, 54, 53, 49, 49, 52, 56, 53, 50, 49, 47, 50, 53, 54, 54, 51, 51, 51, 54, 52, 52, 52, 52, 55, 57, 57, 55, 52, 51, 52, 52, 52, 50, 52, 49, 54, 54, 54, 51, 50, 53, 55, 55, 56, 54, 53, 53, 57, 55, 54, 51, 49, 51, 52, 53, 56, 55, 54, 53, 54, 56, 57, 55, 52, 53, 53, 57, 56, 54, 53, 50, 54, 55, 52, 52, 53, 53, 52, 54, 55, 54, 54, 52, 54, 56, 55, 54, 52, 52, 53, 55, 52, 50, 50, 49, 51, 54, 52, 51, 52, 49, 52, 54, 55, 54, 51, 52, 53, 57, 57, 51, 53, 49, 51, 53, 55, 53, 53, 51, 55, 57, 57, 56, 54, 55, 55, 57, 58, 56, 55, 56, 57, 61, 62, 62, 63, 60, 66, 71, 75, 77, 79, 79, 86, 96, 99, 107, 116, 126, 138, 151, 165, 173, 180, 185, 192, 196, 197, 200, 210, 219, 228, 236, 236, 232, 226, 219, 218, 213, 210, 196, 180, 164, 152, 136, 120, 103, 91, 78, 77, 77, 73, 68, 67, 67, 73, 81, 83, 86, 86, 83, 80, 77, 70, 62, 55, 48, 45, 45, 45, 43, 39, 39, 39, 37, 34, 29, 21, 20, 19, 17, 15, 11, 9, 8, 10, 10, 9, 6, 5, 3, 2, 3, 2, 1, 0, 3, 3, 6, 6, 5, 6, 4, 4, 7, 9, 6, 6, 6, 7, 10, 6, 8, 6, 6, 11, 9, 14, 14, 13, 13, 17, 19, 21, 19, 21, 21, 22, 25, 26, 29, 29, 28, 32, 34, 35, 32, 35, 34, 39, 42, 42, 43, 42, 42, 47, 49, 52, 52, 52, 51, 51, 55, 56, 52, 51, 50, 54, 60, 57, 57, 57, 55, 57, 60, 60, 61, 57, 59, 60, 63, 62, 64, 58, 60, 61, 64, 62, 60, 61, 58, 59, 63, 60, 59, 58, 58, 61, 65, 61, 58, 59, 57, 63, 63, 62, 61, 62, 57, 60, 60, 58, 59, 58, 59, 60, 62, 61, 61, 59, 60, 60, 63, 63, 61, 59, 59, 60, 63, 62, 62, 58, 57, 62, 63, 60, 59, 58, 58, 62, 64, 60, 60, 60, 62, 61, 64, 65, 61, 58, 60, 59, 64, 61, 61, 61, 58, 63, 64, 64, 63, 60, 61, 62, 64, 65, 61, 60, 61, 62, 65, 66, 64, 59, 62, 64, 67, 66, 63, 62, 61, 63, 70, 68, 64, 65, 63, 64, 69, 70, 66, 67, 65, 69, 69, 70, 65, 62, 63, 66, 67, 66, 67, 64, 64, 68, 70, 70, 68, 64, 67, 70, 68, 69, 65, 67, 65, 70, 71, 69, 67, 65, 63, 69, 70, 70, 68, 69, 67, 70, 72, 72, 70, 67, 68, 68, 70, 73, 70, 70, 69, 69, 71 }



no. 3600 point
