{ 73, 78, 80, 78, 74, 69, 67, 71, 75, 80, 90, 101, 124, 150, 177, 200, 212, 207, 187, 158, 117, 70, 36, 24, 26, 31, 37, 47, 55, 59, 63, 65, 68, 69, 68, 68, 71, 73, 74, 73, 71, 71, 73, 74, 73, 72, 72, 72, 74, 76, 76, 79, 79, 78, 77, 77, 78, 78, 76, 76, 79, 83, 85, 85, 83, 84, 88, 88, 89, 89, 88, 90, 92, 94, 100, 103, 104, 105, 106, 108, 110, 111, 110, 111, 112, 111, 113, 114, 115, 115, 112, 109, 107, 107, 109, 110, 108, 104, 101, 98, 97, 96, 97, 98, 98, 94, 89, 87, 86, 86, 88, 85, 82, 78, 78, 80, 82, 83, 82, 80, 77, 75, 73, 71, 73, 77, 80, 80, 78, 74, 74, 73, 75, 75, 77, 78, 78, 77, 78, 80, 80, 77, 71, 70, 74, 78, 81, 79, 76, 74, 79, 82, 81, 78, 75, 72, 75, 79, 83, 81, 79, 79, 80, 79, 79, 78, 80, 83, 82, 79, 76, 79, 81, 81, 81, 81, 83, 84, 85, 84, 82, 82, 82, 84, 84, 83, 84, 84, 86, 87, 86, 84, 85, 88, 86, 85, 80, 76, 74, 74, 76, 79, 78, 79, 82, 81, 78, 75, 73, 71, 71, 71, 72, 72, 72, 72, 74, 74, 74, 74, 72, 72, 74, 73, 73, 73, 70, 69, 73, 75, 72, 68, 65, 67, 78, 93, 113, 135, 160, 187, 214, 226, 217, 194, 157, 112, 63, 32, 26, 29, 32, 37, 45, 54, 60, 66, 66, 63, 67, 69, 70, 71, 71, 69, 67, 67, 71, 72, 72, 71, 72, 74, 76, 76, 74, 73, 75, 76, 74, 72, 72, 74, 78, 80, 79, 77, 76, 77, 80, 83, 83, 83, 85, 86, 88, 89, 91, 90, 92, 95, 97, 97, 95, 96, 100, 104, 105, 106, 108, 109, 108, 108, 110, 111, 112, 113, 112, 112, 114, 114, 113, 110, 106, 105, 105, 105, 102, 99, 93, 89, 89, 90, 89, 87, 86, 84, 81, 80, 81, 81, 80, 78, 78, 80, 80, 78, 77, 77, 79, 79, 77, 75, 74, 73, 74, 73, 74, 73, 71, 71, 74, 77, 78, 77, 76, 73, 73, 73, 74, 73, 73, 74, 77, 77, 78, 76, 74, 74, 75, 77, 77, 75, 76, 74, 78, 80, 81, 81, 81, 80, 80, 80, 81, 81, 79, 78, 81, 83, 83, 83, 82, 81, 84, 88, 89, 84, 80, 78, 81, 84, 86, 87, 84, 80, 78, 80, 83, 83, 81, 80, 80, 80, 82, 81, 80, 76, 76, 75, 75, 75, 73, 72, 72, 72, 73, 77, 77, 75, 73, 72, 72, 75, 74, 73, 75, 76, 77, 74, 70, 66, 64, 71, 78, 87, 98, 112, 138, 167, 196, 217, 228, 225, 202, 167, 121, 71, 31, 17, 20, 27, 36, 45, 52, 56, 61, 63, 68, 69, 69, 69, 70, 71, 72, 73, 72, 72, 70, 70, 73, 73, 72, 72, 73, 75, 75, 74, 74, 73, 73, 73, 74, 76, 77, 79, 83, 86, 88, 88, 88, 90, 92, 91, 93, 95, 97, 97, 97, 98, 99, 100, 102, 105, 108, 110, 111, 110, 110, 109, 109, 110, 111, 113, 112, 109, 108, 109, 113, 113, 112, 110, 111, 109, 106, 104, 100, 99, 100, 100, 99, 97, 93, 88, 88, 88, 88, 86, 84, 82, 82, 80, 79, 79, 74, 73, 75, 76, 77, 77, 78, 76, 76, 77, 75, 74, 74, 75, 77, 77, 78, 79, 77, 73, 71, 70, 73, 74, 73, 73, 74, 77, 79, 78, 76, 76, 78, 77, 75, 77, 78, 80, 82, 82, 80, 77, 72, 70, 71, 79, 90, 109, 136, 167, 204, 234, 253, 253, 227, 180, 131, 84, 51, 41, 53, 73, 86, 93, 95, 94, 90, 88, 88, 86, 86, 86, 84, 84, 84, 84, 85, 86, 86, 87, 87, 85, 80, 75, 72, 70, 71, 71, 73, 74, 73, 72, 70, 72, 72, 72, 72, 74, 74, 74, 76, 75, 74, 76, 76, 82, 82, 79, 80, 82, 84, 87, 89, 89, 89, 87, 90, 92, 98, 99, 99, 97, 98, 98, 98, 98, 98, 99, 101, 101, 101, 99, 96, 94, 94, 93, 93, 92, 89, 87, 87, 86, 86, 84, 81, 79, 74, 75, 77, 78, 75, 72, 73, 74, 73, 71, 72, 73, 74, 74, 70, 67, 67, 69, 72, 74, 74, 74, 73, 72, 74, 75, 76, 77, 75, 73, 73, 75, 77, 76, 76, 75, 76, 77, 79, 77, 77, 75, 76, 76, 75, 75, 76, 78, 82, 85, 89, 90, 88, 88, 88, 88, 88, 87, 88, 89, 89, 90, 88, 85, 85, 85, 87, 88, 87, 83, 81, 80, 81, 83, 83, 77, 74, 71, 72, 73, 73, 74, 72, 73, 73, 72, 69, 68, 68, 68, 70, 70, 71, 69, 68, 69, 71, 73, 73, 72, 71, 68, 67, 70, 72, 71, 68, 64, 62, 66, 71, 75, 84, 99, 121, 146, 172, 197, 219, 231, 225, 200, 165, 122, 76, 33, 12, 15, 27, 37, 46, 52, 57, 62, 66, 69, 68, 65, 65, 66, 66, 67, 66, 66, 68, 68, 67, 68, 70, 70, 70, 69, 70, 71, 71, 71, 70, 69, 72, 72, 72, 72, 73, 74, 75, 75, 74, 74, 77, 79, 81, 83, 85, 84, 82, 84, 86, 89, 89, 87, 88, 91, 94, 94, 94, 95, 97, 99, 101, 101, 101, 102, 103, 107, 110, 113, 114, 113, 114, 114, 116, 117, 117, 116, 119, 121, 123, 120, 115, 114, 115, 117, 117, 113, 106, 104, 102, 100, 98, 94, 89, 84, 81, 79, 78, 78, 76, 73, 72, 72, 73, 73, 73, 72, 74, 77, 75, 73, 69, 67, 67, 71, 72, 73, 71, 70, 68, 69, 70, 67, 63, 63, 65, 67, 70, 68, 67, 68, 70, 71, 70, 67, 66, 67, 67, 69, 67, 67, 67, 68, 70, 71, 72, 70, 69, 69, 71, 74, 72, 67, 65, 64, 63, 61, 61, 64, 71, 83, 99, 122, 150, 178, 200, 209, 200, 172, 133, 88, 44, 20, 19, 31, 44, 55, 60, 66, 67, 69, 70, 68, 67, 67, 69, 72, 71, 67, 64, 63, 64, 66, 65, 63, 61, 63, 66, 69, 70, 69, 67, 64, 66, 69, 70, 70, 70, 73, 77, 81, 83, 87, 88, 88, 89, 89, 89, 91, 93, 93, 96, 98, 99, 99, 99, 102, 105, 105, 105, 103, 102, 103, 104, 106, 106, 104, 100, 96, 96, 98, 99, 98, 96, 95, 96, 94, 93, 90, 87, 87, 86, 84, 83, 80, 76, 72, 73, 74, 74, 72, 71, 70, 69, 64, 62, 60, 59, 59, 61, 62, 62, 59, 57, 59, 58, 59, 60, 59, 58, 59, 59, 60, 60, 61, 60, 61, 64, 64, 61, 58, 57, 57, 60, 62, 63, 63, 63, 64, 68, 70, 69, 63, 62, 66, 72, 84, 102, 119, 141, 165, 194, 216, 223, 208, 173, 132, 88, 47, 16, 8, 17, 29, 41, 53, 60, 61, 60, 59, 58, 59, 58, 58, 55, 52, 52, 57, 61, 60, 58, 55, 54, 55, 57, 56, 56, 56, 57, 58, 58, 57, 58, 62, 66, 69, 70, 70, 70, 71, 71, 71, 71, 73, 75, 78, 81, 82, 81, 79, 79, 84, 85, 85, 85, 88, 89, 87, 85, 88, 87, 85, 84, 85, 86, 87, 89, 90, 88, 87, 87, 88, 90, 90, 88, 85, 84, 84, 82, 80, 78, 74, 73, 72, 71, 70, 68, 64, 63, 62, 61, 58, 56, 53, 51, 52, 51, 50, 51, 54, 55, 55, 55, 56, 56, 54, 51, 50, 50, 50, 50, 47, 47, 49, 52, 51, 51, 50, 51, 52, 53, 53, 52, 51, 51, 54, 57, 56, 53, 51, 50, 55, 59, 68, 79, 96, 120, 149, 177, 201, 212, 200, 169, 129, 84, 40, 12, 5, 15, 28, 39, 47, 48, 46, 44, 43, 45, 44, 44, 42, 43, 44, 44, 44, 42, 42, 43, 44, 44, 41, 39, 40, 42, 46, 46, 48, 48, 49, 51, 51, 52, 54, 55, 57, 61, 63, 62, 60, 56, 54, 56, 60, 61, 62, 63, 65, 69, 70, 69, 67, 65, 66, 68, 66, 61, 60, 59, 61, 62, 67, 67, 65, 62, 61, 63, 65, 64, 63, 63, 61, 59, 61, 62, 60, 59, 58, 56, 56, 55, 54, 51, 48, 46, 44, 42, 41, 41, 41, 42, 41, 39, 37, 35, 35, 38, 41, 41, 41, 40, 36, 34, 36, 38, 40, 42, 40, 40, 42, 45, 47, 45, 43, 41, 41, 42, 41, 40, 40, 41, 45, 45, 44, 42, 45, 51, 61, 76, 93, 114, 140, 164, 188, 205, 200, 177, 142, 103, 61, 23, 2, 0, 9, 18, 29, 38, 41, 42, 42, 41, 39, 39, 39, 38, 38, 38, 38, 37, 36, 34, 35, 38, 41, 46, 48, 46, 45, 44, 46, 47, 48, 47, 48, 51, 51, 53, 53, 54, 56, 60, 60, 60, 59, 58, 59, 59, 59, 61, 60, 57, 56, 56, 58, 58, 60, 60, 62, 66, 68, 66, 63, 62, 63, 66, 68, 68, 69, 70, 70, 73, 73, 72, 70, 69, 69, 66, 63, 62, 58, 56, 53, 50, 50, 54, 56, 54, 51, 48, 48, 50, 48, 46, 43, 43, 44, 46, 46, 47, 48, 50, 52, 49, 45, 45, 49, 53, 55, 53, 49, 46, 46, 49, 51, 52, 53, 54, 56, 59, 61, 61, 55, 51, 54, 66, 84, 107, 133, 156, 182, 207, 224, 222, 196, 152, 105, 57, 23, 11, 17, 29, 40, 48, 52, 51, 49, 47, 46, 45, 46, 48, 49, 49, 47, 46, 43, 44, 44, 45, 48, 51, 53, 50, 49, 49, 53, 56, 59, 61, 58, 57, 56, 57, 61, 61, 61, 58, 60, 63, 65, 67, 66, 66, 63, 60, 63, 67, 67, 63, 61, 61, 61, 64, 63, 65, 66, 66, 66, 68, 68, 68, 70, 73, 73, 73, 70, 71, 71, 73, 72, 69, 69, 68, 68, 70, 71, 67, 63, 62, 61, 59, 57, 57, 57, 53, 51, 52, 54, 57, 58, 55, 51, 49, 54, 57, 59, 57, 55, 56, 57, 55, 57, 59, 61, 61, 60, 60, 57, 53, 54, 55, 60, 61, 63, 62, 61, 63, 62, 62, 63, 65, 64, 67, 76, 90, 112, 137, 164, 194, 220, 232, 220, 188, 146, 98, 49, 19, 12, 22, 34, 49, 59, 62, 59, 56, 57, 58, 60, 59, 57, 58, 62, 64, 63, 65, 66, 63, 64, 64, 62, 62, 64, 66, 66, 66, 63, 65, 63, 65, 65, 68, 70, 70, 69, 69, 71, 70, 68, 67, 67, 67, 65, 65, 63, 67, 68, 68, 70, 73, 78, 79, 79, 75, 71, 72, 75, 77, 78, 80, 81, 82, 84, 84, 85, 87, 87, 86, 86, 85, 86, 84, 80, 78, 78, 79, 79, 76, 73, 71, 70, 67, 66, 63, 60, 60, 63, 64, 63, 59, 58, 60, 62, 61, 57, 58, 58, 61, 65, 65, 65, 64, 64, 63, 63, 62, 61, 59, 61, 62, 66, 68, 68, 68, 67, 66, 68, 70, 71, 71, 74, 81, 98, 116, 138, 160, 186, 217, 243, 255, 243, 204, 151, 100, 52, 27, 25, 38, 50, 57, 59, 61, 62, 63, 60, 59, 55, 52, 50, 53, 57, 60, 62, 62, 61, 60, 59, 62, 64, 65, 62, 61, 60, 62, 62, 63, 61, 59, 58, 62, 63, 60, 57, 56, 57, 59, 59, 58, 58, 57, 58, 57, 57, 57, 58, 58, 60, 61, 63, 66, 66, 66, 67, 69, 67, 66, 62, 62, 65, 66, 66, 66, 68, 67, 67, 66, 68, 68, 67, 66, 67, 66, 65, 66, 66, 64, 63, 62, 63, 61, 58, 56, 54, 54, 55, 55, 54, 51, 51, 54, 55, 56, 55, 54, 53, 54, 53, 56, 56, 53, 50, 52, 53, 55, 57, 58, 57, 57, 56, 58, 57, 54, 54, 55, 58, 60, 60, 61, 62, 63, 65, 63, 61, 65, 74, 90, 108, 134, 160, 187, 213, 232, 229, 199, 145, 87, 39, 11, 11, 27, 42, 50, 55, 57, 60, 62, 62, 62, 62, 61, 59, 60, 60, 58, 60, 61, 65, 64, 61, 57, 55, 57, 59, 62, 62, 60, 59, 58, 59, 57, 57, 55, 54, 55, 56, 57, 57, 56, 58, 58, 62, 65, 65, 61, 61, 62, 65, 66, 65, 64, 64, 64, 66, 68, 71, 72, 72, 73, 74, 76, 77, 77, 76, 75, 77, 78, 77, 76, 73, 73, 72, 71, 69, 66, 65, 64, 62, 64, 62, 58, 56, 56, 57, 58, 57, 55, 52, 54, 56, 57, 57, 56, 54, 54, 58, 58, 56, 55, 55, 55, 56, 56, 57, 58, 57, 58, 59, 61, 62, 62, 62, 62, 67, 68, 66, 65, 68, 76, 90, 109, 133, 158, 183, 212, 237, 248, 232, 193, 142, 93, 52, 27, 27, 38, 52, 58, 61, 63, 62, 59, 58, 59, 60, 62, 64, 63, 60, 62, 65, 67, 66, 65, 66, 64, 63, 65, 63, 63, 61, 61, 61, 61, 58, 58, 56, 56, 56, 56, 54, 53, 52, 53, 53, 56, 56, 57, 57, 56, 59, 62, 64, 62, 62, 63, 65, 65, 64, 63, 63, 65, 68, 68, 66, 63, 65, 65, 65, 68, 69, 70, 70, 70, 69, 70, 70, 68, 67, 65, 64, 64, 63, 61, 60, 60, 57, 55, 53, 53, 54, 53, 54, 54, 55, 55, 56, 57, 58, 58, 56, 52, 49, 49, 52, 55, 54, 54, 55, 55, 55, 55, 56, 55, 56, 57, 59, 61, 61, 59, 58, 58, 60, 64, 74, 89, 107, 134, 162, 192, 219, 237, 238, 216, 173, 123, 76, 36, 16, 22, 38, 53, 61, 62, 62, 58, 58, 57, 56, 56, 56, 60, 61, 62, 64, 63, 62, 63, 64, 67, 67, 66, 63, 62, 62, 65, 65, 64, 62, 61, 61, 63, 66, 63, 58, 57, 58, 61, 59, 58, 58, 61, 61, 61, 60, 61, 63, 67, 67, 69, 68, 69, 70, 71, 73, 74, 74, 76, 77, 80, 83, 84, 84, 81, 79, 81, 84, 84, 84, 81, 81, 80, 79, 78, 76, 75, 72, 69, 68, 68, 67, 65, 61, 59, 60, 62, 61, 60, 58, 56, 57, 58, 57, 57, 56, 57, 58, 59, 60, 59, 57, 57, 58, 60, 61, 62, 61, 60, 57, 57, 60, 62, 62, 62, 62, 64, 65, 67, 73, 84, 102, 126, 151, 179, 209, 234, 243, 221, 169, 109, 58, 27, 24, 40, 56, 62, 65, 65, 67, 65, 60, 57, 55, 57, 58, 60, 62, 63, 66, 66, 67, 68, 68, 64, 63, 64, 67, 66, 63, 62, 63, 64, 66, 66, 66, 63, 60, 61, 61, 60, 59, 58, 60, 62, 65, 66, 65, 63, 62, 61, 61, 64, 67, 68, 65, 65, 66, 68, 67, 69, 70, 71, 72, 73, 73, 73, 71, 71, 76, 78, 74, 67, 66, 70, 70, 69, 66, 63, 59, 60, 61, 62, 62, 59, 58, 55, 55, 58, 58, 57, 55, 54, 55, 55, 55, 56, 55, 58, 59, 60, 58, 56, 56, 55, 58, 58, 60, 59, 59, 59, 61, 65, 67, 66, 66, 65, 68, 76, 87, 103, 125, 152, 181, 210, 230, 234, 211, 168, 115, 71, 33, 18, 24, 41, 56, 64, 66, 63, 62, 63, 61, 60, 59, 59, 59, 61, 64, 67, 68, 68, 66, 66, 69, 71, 71, 67, 67, 68, 71, 74, 72, 70, 67, 69, 70, 69, 67, 66, 66, 68, 72, 74, 75, 75, 74, 75, 79, 81, 81, 81, 82, 84, 87, 90, 88, 89, 91, 91, 91, 93, 92, 92, 92, 93, 90, 88, 85, 82, 79, 78, 76, 75, 73, 72, 69, 69, 70, 70, 68, 65, 64, 64, 66, 66, 66, 65, 62, 62, 65, 67, 63, 61, 62, 63, 63, 66, 66, 65, 65, 66, 70, 71, 71, 71, 70, 70, 71, 71, 72, 72, 73, 79, 88, 103, 121, 143, 166, 193, 220, 240, 245, 224, 184, 136, 89, 50, 28, 29, 44, 60, 70, 72, 71, 69, 67, 66, 67, 66, 63, 61, 59, 62, 63, 66, 68, 69, 70, 71, 71, 72, 72, 73, 72, 73, 72, 72, 71, 73, 73, 73, 73, 73, 72, 70, 69, 68, 70, 71, 70, 68, 66, 65, 65, 66, 66, 67, 67, 70, 72, 73, 75, 73, 75, 73, 72, 73, 75, 74, 76, 76, 78, 78, 77, 76, 77, 78, 79, 78, 76, 76, 76, 75, 74, 73, 72, 69, 67, 64, 63, 66, 67, 65, 63, 63, 65, 65, 64, 61, 61, 62, 63, 63, 63, 59, 59, 59, 61, 65, 63, 63, 64, 62, 62, 62, 64, 63, 63, 62, 63, 66, 68, 69, 67, 67, 69, 71, 75, 83, 98, 120, 145, 168, 196, 221, 231, 217, 180, 136, 90, 49, 24, 22, 36, 51, 62, 65, 67, 66, 67, 67, 66, 65, 64, 65, 63, 63, 62, 62, 62, 63, 67, 69, 70, 71, 71, 71, 72, 73, 73, 72, 74, 74, 74, 75, 76, 76, 78, 81, 84, 83, 83, 81, 80, 81, 81, 82, 81, 81, 82, 81, 82, 82, 83, 84, 86, 87, 91, 93, 94, 94, 95, 100, 101, 101, 101, 102, 101, 103, 105, 107, 105, 102, 99, 97, 95, 94, 93, 92, 90, 88, 86, 86, 83, 81, 79, 77, 76, 76, 74, 72, 68, 67, 67, 69, 70, 69, 69, 70, 70, 70, 69, 69, 68, 70, 73, 75, 75, 72, 67, 66, 69, 73, 75, 73, 72, 70, 72, 72, 73, 71, 69, 73, 84, 97, 115, 139, 165, 194, 220, 233, 227, 199, 158, 114, 75, 43, 31, 33, 44, 58, 67, 72, 73, 73, 71, 68, 67, 69, 69, 69, 65, 65, 63, 63, 63, 65, 65, 67, 69, 72, 73, 75, 73, 73, 74, 77, 79, 80, 77, 74, 72, 75, 78, 78, 77, 77, 79, 82, 83, 80, 77, 77, 78, 79, 78, 75, 73, 73, 75, 78, 81, 80, 80, 80, 83, 83, 84, 81, 78, 80, 84, 85, 87, 87, 86, 85, 87, 88, 87, 87, 86, 84, 83, 82, 78, 73, 68, 67, 69, 70, 69, 68, 70, 70, 70, 69, 68, 66, 66, 66, 68, 67, 66, 65, 63, 66, 69, 71, 69, 69, 69, 71, 71, 71, 69, 67, 66, 66, 67, 69, 70, 70, 69, 72, 73, 74, 75, 74, 72, 72, 73, 77, 84, 92, 104, 121, 143, 166, 187, 206, 219, 218, 200, 167, 128, 87, 52, 31, 28, 34, 44, 54, 62, 68, 69, 70, 70, 69, 67, 69, 70, 71, 70, 71, 68, 68, 72, 74, 76, 77, 76, 75, 73, 74, 76, 77, 75, 75, 76, 80, 82, 81, 81, 81, 81, 83, 84, 84, 82, 82, 79, 79, 79, 80, 79, 80, 82, 85, 86, 82, 83, 87, 90, 94, 96, 95, 96, 96, 98, 98, 97, 96, 99, 104, 108, 107, 106, 106, 104, 103, 102, 101, 100, 97, 93, 93, 94, 93, 90, 86, 83, 82, 80, 78, 76, 75, 74, 74, 75, 75, 73, 71, 69, 69, 70, 72, 73, 73, 69, 68, 70, 71, 74, 75, 74, 73, 73, 74, 74, 72, 71, 70, 71, 73, 75, 74, 73, 72, 73, 76, 76, 74, 75, 83, 97, 116, 138, 160, 184, 210, 232, 245, 237, 206, 161, 113, 68, 36, 29, 36, 44, 55, 64, 69, 70, 70, 68, 68, 66, 66, 65, 63, 63, 64, 66, 68, 69, 70, 72, 76, 75, 74, 72, 70, 70, 71, 74, 75, 76, 76, 76, 77, 79, 80, 78, 77, 78, 80, 81, 82, 79, 79, 77, 77, 76, 78, 75, 73, 71, 73, 76, 78, 77, 77, 78, 80, 81, 84, 88, 89, 87, 84, 85, 88, 89, 88, 86, 87, 88, 89, 90, 89, 88, 84, 83, 84, 84, 83, 81, 80, 80, 80, 77, 73, 74, 75, 75, 75, 74, 75, 74, 74, 74, 73, 72, 71, 72, 73, 73, 74, 73, 71, 70, 71, 74, 77, 76, 74, 73, 74, 77, 78, 77, 73, 72, 75, 78, 80, 81, 80, 80, 82, 83, 84, 83, 83, 84, 90, 98, 110, 124, 142, 160, 182, 207, 229, 240, 235, 217, 186, 151, 113, 71, 41, 34, 42, 52, 61, 69, 74, 78, 80, 82, 83, 83, 81, 78, 78, 79, 81, 82, 82, 82, 80, 81, 84, 86, 86, 85, 85, 86, 85, 86, 84, 83, 83, 84, 85, 84, 82, 83, 86, 91, 90, 91, 90, 88, 85, 82, 81, 83, 84, 85, 86, 88, 91, 91, 90, 88, 92, 95, 99, 100, 102, 103, 102, 101, 101, 102, 103, 103, 106, 110, 110, 109, 109, 108, 108, 109, 109, 106, 103, 101, 101, 101, 99, 99, 96, 93, 91, 92, 88, 84, 81, 82, 83, 85, 86, 84, 82, 80, 78, 79, 82, 83, 82, 79, 76, 80, 84, 86, 85, 83, 82, 81, 80, 79, 77, 77, 81, 83, 84, 80, 80, 81, 82, 85, 85, 85, 87, 88, 88, 87, 87, 87, 89, 96, 105, 116, 131, 150, 173, 199, 226, 246, 255, 240, 204, 156, 107, 65, 40, 36, 44, 56, 67, 73, 75, 76, 77, 78, 77, 79, 81, 84, 82, 79, 78, 80, 83, 85, 82, 78, 76, 76, 77, 81, 82, 81, 79, 80, 80, 83, 83, 80, 78, 76, 75, 75, 75, 74, 74, 73, 72, 73, 74, 78, 80, 81, 81, 81, 81, 78, 79, 85, 89, 89, 85, 80, 82, 84, 87, 87, 89, 90, 89, 89, 91, 92, 94, 92, 91, 89, 92, 92, 93, 93, 93, 91, 88, 87, 85, 84, 83, 82, 81, 80, 79, 76, 74, 75, 76, 78, 77, 73, 71, 70, 72, 72, 74, 74 }


no. 3600 point