{ 20, 20, 20, 20, 20, 20, 20, 20, 20, 21, 23, 26, 29, 30, 30, 30, 34, 36, 38, 37, 36, 35, 36, 37, 38, 36, 35, 33, 35, 36, 37, 35, 30, 30, 29, 29, 29, 26, 23, 21, 22, 22, 21, 21, 18, 14, 12, 11, 12, 12, 11, 11, 11, 13, 13, 9, 8, 8, 9, 12, 14, 13, 14, 12, 13, 15, 13, 13, 13, 12, 15, 15, 16, 15, 14, 13, 13, 16, 17, 19, 21, 20, 22, 24, 24, 23, 23, 21, 21, 22, 22, 21, 20, 19, 20, 18, 17, 14, 13, 12, 11, 12, 14, 15, 13, 13, 13, 15, 15, 16, 14, 12, 13, 13, 12, 10, 6, 4, 5, 7, 8, 8, 7, 8, 10, 13, 12, 10, 6, 6, 8, 11, 12, 9, 7, 7, 11, 12, 11, 9, 6, 7, 10, 12, 19, 23, 29, 32, 36, 43, 52, 67, 84, 99, 121, 143, 170, 192, 203, 216, 225, 222, 200, 169, 133, 93, 61, 43, 34, 27, 25, 24, 28, 28, 27, 24, 21, 19, 17, 17, 13, 13, 12, 11, 13, 10, 8, 4, 6, 5, 9, 13, 15, 13, 10, 9, 8, 8, 8, 6, 8, 6, 9, 9, 11, 11, 13, 16, 21, 24, 29, 30, 30, 30, 28, 31, 31, 30, 29, 28, 29, 31, 35, 37, 35, 37, 38, 38, 38, 37, 36, 33, 30, 32, 34, 35, 37, 35, 36, 37, 36, 35, 32, 31, 30, 31, 29, 30, 28, 26, 26, 27, 25, 21, 19, 14, 15, 17, 17, 13, 7, 6, 11, 16, 19, 21, 21, 21, 18, 20, 21, 23, 23, 23, 28, 28, 27, 24, 23, 20, 21, 21, 20, 21, 20, 19, 21, 21, 19, 18, 17, 16, 19, 18, 19, 17, 17, 14, 13, 13, 14, 13, 12, 10, 10, 11, 12, 12, 13, 9, 7, 7, 7, 6, 4, 5, 8, 12, 13, 13, 9, 4, 2, 4, 10, 14, 14, 13, 6, 6, 9, 13, 14, 15, 17, 16, 18, 19, 15, 15, 18, 17, 14, 13, 11, 10, 9, 12, 14, 16, 15, 14, 14, 14, 13, 12, 11, 14, 18, 21, 21, 16, 10, 4, 1, 2, 4, 6, 4, 8, 11, 13, 13, 15, 18, 19, 20, 14, 14, 15, 19, 19, 23, 25, 23, 18, 16, 15, 18, 22, 26, 28, 28, 24, 22, 21, 20, 17, 13, 13, 16, 19, 24, 29, 31, 34, 45, 59, 84, 108, 129, 151, 177, 198, 218, 235, 242, 225, 195, 156, 115, 74, 45, 22, 7, 4, 13, 24, 30, 31, 30, 31, 30, 29, 28, 25, 24, 25, 27, 26, 23, 21, 24, 23, 22, 22, 21, 21, 21, 21, 21, 21, 23, 23, 24, 27, 26, 25, 27, 30, 32, 34, 34, 33, 28, 29, 34, 37, 41, 44, 43, 45, 45, 47, 47, 47, 48, 49, 50, 51, 53, 51, 51, 50, 55, 57, 58, 56, 55, 55, 58, 58, 62, 62, 61, 62, 62, 64, 65, 66, 64, 65, 65, 64, 64, 61, 57, 53, 55, 54, 54, 52, 50, 47, 50, 49, 49, 47, 41, 40, 38, 40, 38, 39, 38, 38, 38, 39, 41, 39, 38, 36, 39, 41, 44, 43, 41, 38, 41, 44, 43, 42, 40, 38, 40, 43, 44, 42, 42, 42, 44, 47, 47, 49, 46, 46, 47, 49, 47, 46, 43, 42, 44, 43, 44, 41, 39, 39, 40, 42, 42, 38, 38, 35, 38, 39, 38, 38, 35, 35, 38, 38, 38, 38, 38, 36, 38, 40, 38, 35, 36, 36, 38, 41, 40, 38, 34, 34, 35, 38, 38, 38, 38, 37, 38, 40, 40, 38, 39, 38, 41, 42, 42, 39, 38, 35, 37, 40, 41, 38, 35, 32, 35, 37, 38, 34, 31, 30, 33, 35, 34, 33, 32, 32, 34, 34, 36, 37, 34, 32, 36, 38, 37, 35, 35, 35, 36, 36, 36, 35, 34, 32, 36, 38, 38, 38, 36, 37, 39, 42, 40, 36, 33, 33, 37, 36, 38, 36, 34, 31, 34, 41, 44, 47, 49, 53, 60, 71, 87, 106, 124, 145, 171, 193, 213, 230, 246, 255, 252, 234, 202, 166, 125, 90, 66, 49, 38, 31, 32, 38, 46, 47, 47, 43, 40, 37, 37, 38, 38, 36, 32, 32, 34, 36, 35, 33, 34, 32, 33, 35, 35, 36, 35, 33, 34, 38, 39, 38, 37, 36, 38, 40, 38, 38, 36, 37, 38, 39, 40, 40, 39, 38, 40, 41, 42, 40, 40, 39, 42, 45, 44, 44, 42, 41, 44, 46, 43, 44, 42, 43, 44, 47, 48, 48, 50, 52, 56, 59, 61, 59, 58, 59, 62, 63, 64, 64, 62, 60, 62, 61, 59, 56, 53, 51, 51, 53, 50, 48, 43, 42, 41, 41, 40, 39, 37, 36, 37, 38, 36, 36, 35, 35, 36, 38, 38, 37, 35, 36, 38, 38, 36, 36, 32, 33, 32, 33, 32, 33, 31, 30, 31, 31, 33, 34, 34, 37, 36, 38, 37, 38, 38, 38, 39, 41, 40, 40, 38, 35, 37, 38, 37, 35, 36, 33, 35, 36, 35, 34, 31, 31, 33, 34, 37, 34, 32, 31, 31, 33, 34, 32, 31, 29, 31, 32, 32, 30, 32, 29, 32, 32, 31, 30, 30, 28, 29, 31, 31, 30, 30, 28, 27, 29, 27, 27, 25, 27, 30, 33, 37, 39, 41, 45, 48, 51, 55, 66, 80, 96, 115, 132, 151, 174, 190, 204, 218, 229, 229, 216, 196, 172, 143, 111, 84, 66, 55, 47, 45, 46, 47, 47, 42, 38, 37, 36, 37, 34, 31, 30, 30, 30, 29, 28, 29, 28, 28, 29, 26, 26, 23, 23, 22, 23, 23, 21, 20, 20, 21, 21, 21, 19, 17, 14, 15, 15, 13, 11, 10, 13, 19, 21, 24, 24, 24, 26, 30, 34, 36, 36, 35, 34, 37, 40, 39, 40, 42, 41, 41, 42, 44, 44, 45, 46, 46, 47, 48, 47, 47, 47, 48, 49, 51, 48, 48, 47, 49, 50, 49, 47, 46, 44, 45, 45, 41, 39, 35, 33, 33, 32, 29, 27, 25, 25, 23, 21, 20, 15, 13, 14, 16, 16, 19, 15, 20, 26, 30, 34, 37, 38, 36, 38, 38, 38, 38, 38, 38, 39, 39, 38, 37, 35, 34, 38, 38, 39, 37, 37, 37, 36, 37, 36, 34, 34, 34, 36, 36, 33, 30, 27, 27, 27, 29, 28, 26, 23, 22, 24, 25, 22, 19, 16, 15, 15, 16, 13, 12, 12, 11, 13, 15, 17, 19, 19, 21, 26, 31, 32, 31, 30, 29, 29, 30, 30, 30, 28, 28, 31, 30, 34, 32, 32, 31, 31, 31, 30, 30, 29, 28, 29, 30, 30, 29, 26, 27, 28, 30, 28, 25, 25, 25, 25, 25, 24, 21, 19, 20, 21, 21, 21, 19, 17, 15, 17, 18, 20, 17, 16, 17, 19, 21, 23, 25, 27, 29, 32, 34, 35, 32, 34, 35, 35, 36, 35, 34, 33, 32, 34, 35, 35, 35, 30, 32, 35, 36, 35, 33, 34, 33, 37, 38, 36, 35, 34, 34, 38, 42, 44, 48, 49, 52, 60, 72, 90, 109, 127, 149, 175, 198, 217, 234, 247, 250, 234, 205, 165, 122, 84, 59, 42, 29, 16, 10, 12, 18, 24, 25, 25, 24, 22, 22, 22, 23, 21, 21, 21, 22, 24, 26, 27, 25, 23, 21, 22, 24, 24, 21, 21, 21, 24, 23, 24, 25, 22, 21, 24, 24, 24, 25, 24, 24, 27, 28, 28, 26, 25, 26, 28, 29, 30, 29, 28, 29, 31, 35, 36, 35, 36, 33, 38, 38, 38, 38, 39, 41, 42, 42, 43, 41, 42, 42, 43, 43, 43, 42, 43, 46, 50, 54, 55, 55, 52, 51, 55, 55, 55, 52, 52, 52, 51, 53, 51, 47, 45, 43, 45, 44, 42, 41, 38, 37, 36, 36, 37, 35, 32, 30, 30, 32, 30, 30, 29, 29, 31, 31, 31, 30, 27, 24, 28, 32, 34, 34, 31, 30, 32, 36, 38, 37, 34, 35, 38, 38, 37, 35, 31, 30, 30, 31, 30, 30, 26, 25, 27, 32, 34, 33, 32, 30, 32, 34, 34, 33, 30, 29, 30, 29, 28, 27, 23, 22, 23, 27, 27, 28, 26, 25, 26, 26, 27, 26, 23, 22, 26, 27, 28, 29, 28, 24, 28, 28, 29, 28, 28, 27, 28, 30, 32, 31, 32, 30, 33, 34, 33, 32, 31, 30, 28, 30, 29, 29, 26, 28, 30, 30, 30, 27, 23, 23, 28, 30, 34, 39, 43, 52, 65, 87, 107, 123, 139, 158, 183, 199, 211, 225, 232, 225, 203, 181, 149, 112, 81, 62, 51, 42, 38, 40, 41, 43, 45, 43, 38, 36, 33, 30, 28, 30, 30, 30, 27, 26, 26, 30, 28, 28, 26, 26, 26, 28, 28, 26, 24, 21, 23, 24, 25, 24, 24, 21, 21, 21, 21, 21, 19, 18, 19, 22, 22, 23, 23, 23, 24, 26, 29, 27, 26, 27, 30, 33, 37, 37, 36, 39, 40, 42, 42, 44, 42, 42, 41, 44, 45, 43, 41, 39, 41, 46, 47, 46, 46, 44, 46, 47, 44, 41, 39, 38, 38, 36, 36, 33, 30, 27, 26, 26, 24, 23, 21, 19, 17, 18, 18, 17, 15, 14, 14, 16, 13, 13, 12, 12, 11, 14, 17, 20, 19, 21, 26, 28, 30, 32, 30, 32, 36, 38, 39, 38, 36, 37, 38, 39, 38, 38, 35, 36, 37, 36, 35, 37, 37, 34, 33, 36, 33, 32, 30, 30, 30, 28, 29, 28, 27, 25, 26, 27, 27, 26, 24, 21, 22, 23, 21, 20, 17, 14, 14, 15, 14, 13, 12, 10, 11, 11, 13, 9, 10, 9, 11, 15, 21, 29, 35, 42, 53, 68, 82, 95, 107, 123, 141, 160, 174, 184, 194, 196, 191, 177, 156, 124, 90, 63, 49, 42, 35, 29, 27, 28, 30, 28, 26, 21, 19, 17, 17, 16, 18, 15, 13, 13, 13, 13, 13, 9, 9, 10, 13, 13, 11, 11, 7, 9, 10, 10, 10, 9, 8, 10, 9, 13, 14, 13, 11, 10, 13, 14, 13, 13, 14, 16, 21, 25, 26, 24, 22, 24, 27, 28, 28, 26, 26, 29, 30, 31, 32, 31, 32, 31, 32, 36, 35, 37, 38, 39, 43, 43, 42, 43, 42, 41, 44, 46, 45, 42, 39, 38, 38, 37, 35, 30, 29, 26, 28, 29, 28, 22, 20, 20, 17, 19, 17, 15, 13, 13, 13, 15, 14, 14, 13, 15, 16, 20, 18, 18, 15, 15, 17, 18, 17, 15, 13, 13, 14, 17, 15, 14, 13, 15, 18, 19, 17, 17, 16, 17, 17, 20, 20, 17, 14, 17, 20, 21, 21, 19, 18, 20, 18, 19, 20, 16, 13, 17, 19, 21, 20, 16, 13, 13, 14, 16, 14, 13, 12, 13, 13, 17, 15, 14, 13, 13, 16, 16, 16, 16, 16, 15, 19, 21, 19, 17, 14, 12, 15, 16, 16, 15, 14, 12, 14, 17, 17, 16, 15, 14, 14, 18, 16, 17, 15, 14, 17, 19, 17, 19, 18, 18, 19, 20, 18, 18, 15, 13, 14, 14, 14, 13, 12, 11, 11, 11, 11, 12, 10, 10, 10, 11, 11, 9, 9, 8, 9, 10, 8, 9, 6, 9, 13, 14, 16, 21, 18, 19, 19, 21, 18, 18, 15, 16, 17, 18, 16, 15, 14, 13, 13, 13, 13, 13, 13, 10, 12, 13, 15, 14, 13, 11, 13, 14, 14, 13, 13, 13, 13, 13, 11, 12, 10, 10, 10, 11, 13, 12, 11, 11, 13, 13, 13, 13, 13, 14, 15, 18, 17, 18, 16, 17, 18, 17, 15, 17, 17, 18, 18, 19, 18, 19, 20, 21, 25, 27, 26, 23, 22, 23, 22, 24, 25, 26, 27, 26, 30, 30, 30, 32, 34, 41, 44, 47, 52, 58, 72, 89, 110, 129, 149, 167, 184, 199, 213, 225, 223, 200, 170, 132, 96, 65, 44, 30, 18, 14, 15, 22, 27, 27, 25, 22, 22, 20, 20, 14, 15, 12, 13, 13, 10, 6, 6, 4, 2, 3, 0, 0, 2, 6, 13, 15, 16, 17, 15, 13, 14, 15, 17, 15, 15, 16, 15, 17, 16, 18, 19, 21, 21, 23, 24, 22, 21, 22, 25, 30, 30, 30, 29, 30, 30, 30, 30, 29, 30, 28, 30, 34, 35, 34, 34, 35, 36, 37, 35, 34, 32, 34, 38, 38, 38, 39, 39, 41, 42, 43, 44, 41, 39, 38, 39, 38, 38, 37, 36, 37, 41, 41, 41, 39, 36, 38, 35, 36, 35, 32, 30, 27, 29, 30, 30, 29, 28, 27, 29, 30, 30, 28, 29, 29, 30, 30, 30, 28, 27, 26, 26, 28, 26, 25, 22, 24, 26, 26, 25, 25, 25, 27, 28, 30, 29, 27, 25, 22, 24, 23, 21, 19, 16, 15, 16, 17, 16, 17, 17, 19, 21, 21, 21, 20, 19, 20, 22, 21, 23, 22, 21, 19, 23, 23, 23, 24, 23, 23, 22, 23, 22, 21, 20, 20, 21, 22, 22, 23, 21, 19, 20, 19, 21, 20, 20, 18, 20, 20, 19, 17, 13, 13, 13, 15, 14, 13, 8, 7, 8, 9, 9, 11, 7, 6, 12, 15, 18, 17, 14, 15, 17, 19, 20, 19, 17, 18, 20, 21, 22, 22, 21, 23, 24, 25, 24, 23, 22, 22, 24, 26, 24, 23, 22, 21, 24, 26, 25, 24, 24, 24, 23, 23, 24, 25, 24, 27, 28, 32, 37, 39, 43, 51, 70, 92, 112, 132, 151, 173, 192, 211, 221, 220, 201, 169, 131, 94, 62, 37, 18, 11, 13, 20, 30, 32, 31, 28, 27, 28, 26, 24, 22, 21, 23, 25, 23, 21, 20, 17, 19, 21, 21, 19, 17, 16, 18, 19, 17, 15, 13, 13, 16, 17, 17, 17, 14, 16, 17, 19, 18, 17, 15, 16, 18, 20, 20, 20, 18, 19, 21, 24, 23, 24, 23, 27, 29, 31, 32, 33, 33, 35, 37, 40, 39, 40, 39, 41, 43, 42, 43, 42, 41, 43, 45, 47, 45, 43, 42, 41, 41, 43, 41, 38, 37, 35, 34, 34, 32, 30, 28, 26, 26, 26, 25, 22, 20, 20, 21, 21, 19, 17, 15, 16, 19, 18, 18, 14, 13, 13, 13, 13, 13, 12, 13, 13, 13, 17, 16, 16, 16, 16, 17, 19, 17, 18, 15, 15, 16, 18, 20, 21, 21, 21, 24, 24, 23, 23, 20, 20, 23, 22, 22, 21, 21, 19, 21, 21, 21, 21, 20, 20, 19, 20, 19, 17, 16, 16, 18, 19, 18, 16, 16, 15, 16, 17, 16, 15, 12, 11, 13, 14, 14, 14, 14, 11, 14, 14, 13, 12, 11, 12, 11, 13, 12, 11, 9, 7, 9, 11, 12, 9, 5, 4, 5, 8, 6, 8, 10, 13, 21, 26, 27, 26, 23, 23, 24, 27, 25, 25, 23, 23, 25, 26, 27, 22, 23, 21, 22, 24, 22, 21, 21, 19, 21, 20, 19, 17, 16, 18, 18, 21, 21, 23, 22, 24, 23, 28, 32, 38, 40, 47, 58, 77, 96, 113, 129, 150, 172, 186, 196, 201, 200, 188, 166, 142, 108, 73, 49, 39, 37, 36, 36, 34, 35, 31, 30, 30, 25, 21, 18, 18, 19, 19, 15, 13, 12, 12, 13, 16, 14, 14, 13, 13, 13, 15, 17, 18, 15, 14, 15, 17, 15, 16, 16, 16, 17, 18, 17, 15, 13, 14, 16, 17, 17, 16, 15, 16, 17, 19, 21, 19, 21, 24, 29, 31, 32, 34, 33, 33, 37, 38, 38, 36, 35, 37, 38, 40, 40, 41, 41, 41, 42, 44, 43, 41, 37, 35, 35, 34, 30, 28, 25, 23, 24, 24, 21, 18, 18, 19, 18, 17, 14, 13, 14, 13, 15, 17, 15, 15, 13, 14, 16, 16, 15, 14, 14, 13, 13, 14, 15, 17, 17, 20, 21, 24, 24, 23, 23, 21, 22, 22, 21, 21, 22, 22, 23, 24, 21, 22, 21, 21, 21, 21, 20, 19, 18, 18, 18, 18, 18, 18, 18, 14, 14, 18, 18, 14, 15, 15, 15, 16, 15, 15, 13, 14, 14, 15, 13, 13, 12, 13, 12, 13, 13, 13, 10, 10, 9, 11, 13, 11, 12, 14, 17, 19, 18, 17, 16, 15, 16, 17, 15, 15, 14, 14, 14, 16, 16, 14, 12, 11, 13, 16, 15, 13, 13, 13, 12, 14, 13, 18, 19, 24, 30, 34, 37, 42, 54, 70, 89, 108, 129, 153, 171, 188, 202, 212, 202, 174, 138, 95, 59, 37, 24, 15, 13, 15, 21, 24, 23, 19, 13, 13, 13, 18, 19, 19, 17, 16, 18, 18, 17, 16, 13, 13, 11, 13, 11, 9, 5, 5, 8, 10, 9, 9, 10, 11, 13, 15, 14, 13, 13, 13, 14, 16, 14, 14, 13, 16, 17, 19, 19, 19, 19, 20, 21, 23, 21, 21, 22, 23, 25, 27, 28, 28, 30, 30, 31, 34, 37, 39, 40, 43, 47, 47, 48, 47, 44, 41, 44, 43, 43, 40, 38, 35, 35, 36, 32, 27, 23, 22, 22, 21, 21, 18, 13, 13, 15, 18, 17, 16, 14, 13, 16, 16, 16, 14, 12, 12, 13, 14, 13, 13, 12, 11, 11, 13, 12, 11, 7, 6, 8, 10, 10, 11, 10, 10, 9, 11, 9, 7, 4, 4, 4, 10, 10, 12, 13, 15, 20, 22, 21, 21, 18, 18, 18, 19, 18, 16, 17, 18, 20, 21, 19, 18, 15, 15, 18, 21, 21, 18, 17, 17, 19, 21, 20, 19, 17, 17, 16, 19, 18, 18, 14, 14, 15, 16, 15, 13, 12, 10, 12, 14, 14, 12, 10, 12, 15, 17, 16, 13, 11, 12, 13, 15, 13, 13, 12, 11, 11, 14, 16, 13, 15, 17, 21, 26, 25, 24, 22, 22, 23, 27, 27, 28, 28, 30, 36, 42, 47, 55, 72, 89, 112, 135, 159, 181, 199, 214, 230, 243, 239, 218, 183, 142, 100, 65, 40, 24, 12, 6, 8, 16, 20, 22, 21, 19, 20, 21, 19, 17, 15, 12, 13, 13, 11, 12, 11, 8, 8, 10, 9, 9, 9, 9, 9, 11, 10, 11, 13, 12, 14, 19, 16, 15, 13, 13, 17, 18, 18, 19, 18, 19, 20, 20, 21, 19, 20, 21, 21, 21, 24, 23, 22, 23, 24, 28, 28, 28, 27, 29, 31, 35, 35, 35, 35, 34, 37, 38, 38, 39, 38, 38, 38, 39, 40, 40, 38, 38, 38, 38, 38, 36, 33, 31, 30, 28, 26, 25, 21, 19, 18, 20, 18, 17, 17, 17, 21, 22, 22, 22, 21, 23, 24, 26, 25, 22, 21, 21, 21, 22, 21, 21, 21, 21, 21, 23, 26, 24, 23, 24, 27, 27, 25, 23, 21, 23, 25, 26, 26, 23, 22, 21, 23, 22, 23, 21, 21, 21, 23, 25, 24, 22, 20, 20, 21, 22, 21, 19, 18, 17, 17, 14, 17, 13, 9, 8, 9, 12, 10, 6, 4, 4, 9, 14, 15, 15, 17, 18, 21, 23, 29, 30, 30, 30, 32, 34, 31, 29, 29, 27, 27, 30, 30, 25, 21, 21, 23, 24, 24, 22, 18, 17, 18, 19, 20, 18, 17, 17, 19, 22, 21, 19, 16, 17, 18, 20, 20, 19, 15, 15, 17, 20, 20, 19, 18, 20, 25, 31, 35, 38, 45, 59, 78, 95, 112, 128, 147, 164, 175, 187, 197, 200, 188, 171, 149, 123, 94, 69, 56, 47, 42, 43, 42, 41, 38, 35, 33, 33, 30, 28, 24, 22, 22, 23, 21, 21, 16, 15, 17, 17, 17, 17, 15, 14, 16, 17, 15, 15, 13, 14, 16, 15, 14, 13, 13, 11, 13, 16, 15, 15, 14, 14, 14, 17, 15, 19, 17, 18, 21, 23, 22, 25, 24, 24, 28, 30, 30, 27, 22, 25, 29, 30, 30, 28, 29, 31, 34, 37, 38, 38, 41, 44, 47, 47, 48, 46, 42, 44, 47, 48, 47, 46, 44, 43, 44, 46, 43, 40, 38, 37, 36, 37, 36, 31, 28, 28, 28, 27, 28, 25, 23, 21, 22, 22, 23, 21, 19, 20, 24, 26, 26, 24, 20, 19, 21, 23, 20, 20, 18, 18, 19, 21, 21, 21, 18, 15, 17, 19, 16, 16, 15, 15, 16, 18, 18, 20, 21, 21, 24, 27, 28, 26, 23, 24, 25, 27, 27, 26, 23, 24, 24, 27, 24, 22, 22, 21, 22, 25, 22, 22, 21, 23, 24, 25, 24, 21, 21, 21, 21, 22, 23, 20, 19, 16, 18, 18, 17, 16, 16, 16, 16, 18, 16, 15, 14, 15, 15, 16, 16, 15, 13, 13, 16, 18, 18, 16, 15, 18, 18, 20, 19, 19, 19, 18, 19, 21, 21, 19, 17, 19, 18, 20, 20, 18, 17, 19, 21, 26, 24, 22, 18, 20, 20, 22, 21, 21, 16, 17, 17, 19, 16, 15, 14, 15, 17, 18, 19, 14, 13, 13, 14, 18, 17, 14, 13, 14, 18, 21, 21, 25, 27, 30, 38, 43, 55, 71, 85, 101, 119, 141, 165, 180, 187, 200, 208, 207, 191, 166, 136, 100, 73, 56, 48, 42, 34, 31, 33, 37, 37, 33, 29, 27, 27, 26, 24, 24, 21, 19, 20, 20, 20, 18, 14, 15, 15, 16, 13, 13, 10, 11, 12, 13, 13, 12, 10, 11, 11, 13, 13, 14, 11, 11, 13, 14, 16, 15, 13, 17, 19, 21, 22, 21, 22, 22, 23, 26, 28, 30, 30, 36, 36, 38, 38, 38, 38, 39, 41, 42, 43, 40, 41, 42, 44, 45, 44, 43, 41, 45, 45, 46, 47, 44, 43, 44, 45, 46, 47, 43, 39, 40, 40, 41, 39, 37, 32, 31, 30, 31, 30, 28, 27, 26, 28, 27, 27, 26, 25, 24, 25, 26, 27, 25, 22, 23, 25, 26, 26, 23, 21, 21, 21, 22, 22 }


no. 3600 point