{ 158, 159, 160, 160, 160, 160, 160, 161, 161, 161, 161, 160, 160, 160, 161, 161, 162, 162, 163, 164, 166, 167, 167, 167, 165, 167, 168, 168, 169, 168, 168, 168, 168, 167, 166, 166, 166, 166, 166, 166, 168, 168, 168, 166, 165, 164, 164, 162, 160, 161, 161, 160, 159, 159, 159, 159, 159, 160, 159, 158, 158, 158, 158, 159, 159, 159, 158, 158, 158, 159, 159, 159, 157, 156, 156, 153, 150, 149, 146, 144, 146, 151, 161, 173, 184, 199, 219, 237, 249, 255, 251, 234, 206, 177, 156, 151, 154, 158, 160, 161, 160, 160, 158, 159, 159, 159, 159, 157, 156, 157, 156, 156, 156, 156, 155, 156, 156, 156, 156, 156, 155, 155, 156, 156, 156, 156, 155, 156, 156, 157, 157, 156, 156, 156, 157, 157, 157, 156, 156, 156, 156, 156, 156, 156, 155, 155, 156, 156, 156, 156, 156, 155, 156, 157, 157, 156, 156, 156, 157, 158, 157, 156, 156, 156, 157, 157, 157, 156, 155, 156, 156, 156, 156, 155, 155, 155, 156, 156, 155, 155, 154, 155, 156, 156, 155, 155, 155, 155, 155, 156, 156, 156, 156, 156, 158, 158, 158, 158, 159, 160, 161, 161, 161, 162, 161, 162, 163, 163, 164, 163, 164, 164, 164, 165, 165, 165, 164, 163, 164, 163, 163, 163, 163, 163, 164, 164, 163, 163, 162, 163, 163, 164, 162, 163, 162, 162, 163, 163, 163, 162, 162, 162, 163, 163, 163, 162, 161, 161, 160, 161, 160, 160, 160, 160, 160, 161, 160, 160, 160, 161, 161, 162, 161, 160, 160, 161, 161, 161, 160, 160, 160, 159, 160, 160, 160, 160, 160, 160, 160, 161, 160, 160, 159, 161, 161, 162, 161, 161, 161, 161, 161, 162, 162, 161, 160, 161, 161, 161, 161, 161, 160, 161, 162, 163, 163, 164, 164, 165, 165, 165, 166, 165, 166, 167, 168, 168, 169, 169, 168, 168, 168, 168, 168, 167, 167, 167, 167, 167, 166, 166, 165, 164, 167, 169, 169, 167, 164, 163, 162, 162, 161, 160, 159, 159, 159, 159, 160, 159, 158, 159, 159, 159, 159, 158, 158, 158, 159, 159, 158, 157, 156, 157, 157, 158, 157, 157, 156, 156, 155, 153, 150, 148, 145, 143, 142, 148, 156, 167, 177, 190, 207, 226, 239, 247, 247, 236, 213, 185, 161, 150, 148, 152, 155, 156, 157, 156, 155, 156, 156, 156, 156, 156, 156, 156, 156, 156, 156, 155, 154, 155, 155, 156, 156, 155, 155, 155, 155, 156, 155, 155, 154, 155, 155, 155, 155, 155, 155, 154, 154, 156, 155, 156, 154, 155, 156, 156, 155, 155, 155, 154, 155, 155, 155, 154, 154, 154, 155, 155, 155, 154, 154, 153, 154, 154, 154, 154, 154, 155, 155, 156, 156, 155, 154, 155, 155, 155, 155, 154, 154, 154, 154, 153, 153, 153, 152, 152, 153, 153, 153, 153, 153, 153, 154, 154, 154, 153, 152, 152, 153, 154, 154, 153, 153, 154, 155, 156, 156, 156, 156, 157, 158, 159, 158, 157, 158, 158, 159, 159, 160, 160, 159, 159, 160, 161, 161, 160, 160, 160, 161, 161, 161, 160, 159, 159, 160, 159, 159, 158, 158, 159, 159, 159, 159, 158, 157, 158, 158, 159, 159, 159, 158, 158, 159, 158, 157, 157, 157, 157, 156, 157, 157, 156, 156, 156, 156, 157, 157, 156, 155, 155, 156, 156, 156, 155, 155, 155, 155, 155, 155, 154, 155, 156, 156, 157, 157, 156, 155, 155, 156, 156, 156, 155, 155, 155, 155, 156, 156, 154, 154, 154, 155, 155, 155, 155, 154, 155, 155, 156, 155, 155, 155, 156, 156, 157, 158, 159, 158, 160, 160, 160, 160, 159, 158, 159, 160, 160, 161, 160, 160, 161, 162, 162, 162, 161, 160, 160, 160, 161, 161, 160, 159, 160, 161, 162, 163, 161, 158, 157, 157, 156, 155, 154, 154, 154, 154, 155, 154, 153, 153, 153, 152, 153, 153, 152, 152, 152, 153, 153, 153, 153, 152, 153, 153, 153, 153, 153, 152, 151, 150, 148, 147, 146, 145, 144, 140, 137, 138, 141, 147, 155, 165, 176, 191, 207, 222, 232, 238, 233, 215, 190, 166, 151, 146, 146, 146, 148, 148, 148, 150, 151, 150, 150, 150, 150, 150, 149, 150, 149, 148, 149, 149, 150, 149, 148, 149, 150, 150, 149, 150, 149, 148, 149, 148, 149, 149, 148, 147, 148, 148, 149, 149, 148, 148, 149, 150, 150, 150, 150, 149, 149, 150, 150, 149, 149, 147, 147, 148, 148, 149, 148, 147, 148, 148, 148, 147, 147, 147, 148, 148, 148, 149, 148, 147, 148, 148, 150, 150, 150, 149, 149, 149, 149, 148, 147, 146, 147, 147, 147, 147, 145, 145, 145, 145, 145, 145, 144, 143, 143, 145, 145, 145, 143, 143, 145, 145, 146, 147, 147, 147, 148, 150, 151, 151, 151, 151, 152, 151, 152, 153, 154, 154, 155, 155, 155, 155, 154, 154, 155, 156, 157, 157, 156, 156, 156, 157, 157, 157, 157, 157, 157, 157, 156, 156, 155, 154, 155, 155, 156, 156, 155, 154, 154, 156, 156, 156, 156, 154, 155, 155, 156, 156, 155, 153, 154, 153, 154, 154, 154, 153, 153, 154, 153, 154, 153, 153, 153, 155, 154, 154, 153, 153, 153, 154, 154, 153, 152, 152, 152, 152, 153, 153, 153, 153, 153, 155, 155, 155, 154, 153, 154, 154, 155, 155, 155, 154, 154, 154, 155, 154, 154, 153, 153, 154, 154, 153, 153, 153, 154, 155, 156, 156, 156, 157, 157, 159, 159, 159, 159, 160, 160, 161, 161, 161, 161, 160, 161, 161, 161, 161, 160, 158, 159, 159, 160, 159, 159, 158, 158, 159, 161, 161, 161, 159, 157, 157, 157, 156, 155, 154, 154, 153, 154, 154, 153, 153, 152, 154, 154, 153, 153, 152, 152, 153, 153, 153, 152, 152, 153, 153, 153, 153, 152, 151, 150, 148, 146, 145, 145, 143, 141, 139, 141, 148, 157, 168, 180, 194, 211, 226, 237, 243, 242, 231, 208, 180, 159, 148, 146, 146, 148, 149, 150, 150, 150, 151, 151, 151, 151, 150, 150, 150, 151, 151, 151, 150, 151, 152, 152, 152, 151, 151, 152, 152, 152, 152, 150, 151, 151, 152, 152, 152, 151, 151, 150, 151, 151, 152, 150, 151, 151, 152, 152, 153, 152, 150, 151, 152, 152, 152, 152, 152, 152, 153, 152, 152, 152, 151, 152, 152, 152, 152, 151, 151, 152, 152, 152, 151, 151, 151, 151, 151, 152, 152, 153, 151, 152, 152, 152, 151, 151, 151, 151, 150, 150, 150, 149, 148, 148, 149, 149, 149, 148, 148, 148, 149, 149, 150, 150, 149, 149, 151, 151, 152, 151, 151, 153, 155, 156, 156, 156, 157, 157, 158, 158, 159, 158, 157, 159, 159, 160, 160, 160, 159, 160, 160, 161, 160, 160, 159, 160, 160, 160, 159, 160, 159, 160, 160, 160, 160, 160, 159, 159, 159, 160, 159, 159, 158, 159, 160, 159, 159, 159, 158, 159, 159, 159, 159, 159, 158, 159, 159, 159, 158, 158, 158, 158, 159, 159, 158, 158, 158, 157, 157, 157, 158, 157, 156, 157, 158, 158, 157, 156, 156, 156, 157, 158, 158, 158, 157, 158, 158, 158, 158, 158, 157, 157, 158, 159, 158, 158, 158, 158, 158, 159, 158, 159, 157, 158, 159, 159, 159, 158, 158, 159, 159, 160, 161, 161, 161, 162, 163, 163, 163, 163, 163, 164, 165, 165, 166, 166, 165, 165, 165, 165, 165, 164, 164, 164, 164, 165, 164, 164, 166, 166, 166, 164, 163, 161, 160, 159, 159, 158, 158, 158, 156, 158, 158, 159, 158, 158, 157, 157, 158, 158, 158, 157, 157, 157, 157, 158, 158, 157, 157, 157, 158, 157, 157, 156, 156, 156, 155, 153, 150, 147, 146, 144, 143, 147, 155, 166, 178, 192, 211, 231, 247, 255, 252, 240, 215, 185, 161, 150, 150, 154, 156, 157, 156, 155, 154, 155, 155, 155, 155, 154, 154, 154, 154, 154, 154, 154, 153, 154, 154, 155, 155, 155, 154, 154, 154, 155, 155, 154, 154, 153, 154, 154, 153, 153, 153, 153, 154, 155, 155, 154, 153, 154, 154, 155, 156, 155, 155, 155, 155, 156, 155, 155, 154, 154, 155, 154, 154, 154, 154, 154, 155, 155, 156, 154, 153, 154, 155, 155, 154, 154, 153, 154, 153, 154, 154, 153, 152, 153, 153, 155, 154, 153, 152, 152, 153, 154, 154, 153, 153, 153, 153, 153, 154, 154, 153, 154, 155, 156, 156, 156, 157, 158, 159, 160, 160, 160, 160, 160, 161, 161, 161, 161, 160, 160, 161, 161, 161, 161, 160, 161, 161, 162, 162, 161, 161, 161, 161, 162, 162, 162, 161, 161, 162, 162, 162, 161, 161, 161, 162, 162, 162, 162, 160, 160, 160, 160, 159, 159, 159, 159, 159, 160, 159, 159, 158, 158, 159, 159, 159, 158, 158, 158, 159, 160, 159, 158, 158, 158, 158, 159, 158, 157, 157, 157, 158, 158, 157, 157, 157, 157, 157, 158, 157, 157, 157, 158, 158, 158, 158, 158, 157, 158, 159, 159, 160, 159, 157, 158, 159, 159, 159, 159, 159, 159, 161, 162, 163, 163, 162, 163, 164, 165, 165, 165, 164, 165, 167, 167, 165, 165, 165, 165, 166, 166, 165, 164, 164, 164, 164, 165, 166, 167, 166, 164, 163, 162, 161, 160, 158, 157, 157, 158, 158, 157, 157, 157, 157, 157, 158, 157, 156, 157, 158, 158, 158, 157, 157, 157, 157, 158, 157, 157, 156, 154, 152, 149, 148, 146, 144, 142, 145, 154, 165, 176, 189, 209, 229, 244, 250, 245, 225, 195, 168, 153, 148, 150, 154, 156, 156, 156, 155, 155, 154, 155, 155, 155, 155, 154, 154, 154, 155, 156, 156, 155, 154, 154, 155, 155, 155, 155, 154, 154, 155, 155, 154, 154, 153, 154, 154, 154, 154, 154, 154, 153, 154, 155, 154, 154, 154, 154, 154, 155, 155, 154, 154, 154, 155, 154, 155, 155, 154, 153, 154, 155, 154, 154, 154, 154, 154, 155, 155, 154, 154, 154, 155, 154, 155, 154, 154, 154, 154, 154, 153, 152, 152, 152, 152, 153, 152, 152, 152, 152, 152, 153, 153, 153, 152, 153, 154, 155, 156, 156, 156, 156, 157, 158, 158, 159, 158, 159, 158, 159, 160, 160, 159, 158, 160, 159, 159, 159, 160, 160, 160, 161, 160, 160, 159, 160, 161, 161, 160, 160, 159, 158, 158, 159, 158, 158, 156, 158, 159, 159, 158, 158, 157, 157, 159, 160, 158, 158, 157, 157, 157, 157, 157, 156, 155, 156, 156, 157, 157, 156, 156, 156, 156, 156, 156, 156, 155, 156, 156, 157, 156, 156, 156, 156, 156, 157, 157, 156, 154, 156, 156, 156, 157, 156, 156, 156, 157, 157, 156, 156, 155, 156, 156, 157, 157, 157, 157, 159, 161, 161, 161, 159, 160, 162, 163, 164, 165, 165, 163, 163, 163, 163, 162, 162, 160, 160, 160, 161, 160, 161, 161, 162, 162, 160, 158, 157, 156, 155, 156, 156, 155, 154, 154, 154, 154, 155, 155, 153, 152, 153, 153, 153, 153, 154, 153, 152, 153, 155, 155, 154, 153, 153, 153, 153, 151, 149, 147, 147, 145, 142, 140, 141, 145, 154, 165, 177, 192, 209, 226, 238, 240, 230, 207, 179, 157, 147, 146, 149, 151, 151, 151, 152, 154, 153, 153, 152, 152, 152, 153, 152, 152, 151, 151, 151, 152, 152, 151, 150, 150, 150, 151, 152, 153, 152, 151, 152, 152, 152, 151, 151, 152, 152, 152, 152, 151, 151, 151, 151, 152, 152, 151, 151, 151, 151, 151, 151, 151, 150, 150, 151, 151, 151, 151, 151, 151, 152, 153, 153, 152, 152, 151, 151, 153, 152, 152, 151, 151, 151, 151, 152, 150, 149, 148, 148, 148, 149, 148, 149, 147, 147, 148, 148, 148, 148, 147, 146, 147, 148, 148, 147, 147, 147, 149, 150, 150, 151, 152, 152, 154, 154, 155, 155, 155, 157, 158, 159, 159, 158, 158, 159, 159, 159, 159, 158, 158, 158, 159, 159, 158, 158, 157, 158, 159, 159, 159, 157, 157, 158, 159, 159, 159, 158, 158, 158, 159, 160, 159, 158, 157, 157, 158, 158, 158, 158, 157, 156, 157, 157, 156, 157, 156, 156, 157, 157, 157, 157, 156, 156, 157, 156, 158, 157, 156, 156, 157, 158, 158, 157, 156, 157, 157, 157, 157, 156, 157, 156, 157, 158, 158, 157, 156, 157, 158, 159, 159, 158, 157, 158, 159, 159, 158, 158, 157, 158, 158, 159, 158, 158, 158, 158, 160, 161, 161, 162, 161, 161, 162, 163, 164, 163, 163, 163, 165, 165, 165, 164, 163, 163, 164, 165, 164, 163, 162, 162, 164, 166, 166, 164, 161, 160, 159, 159, 158, 157, 156, 156, 157, 157, 157, 157, 155, 156, 156, 156, 156, 156, 155, 156, 156, 157, 157, 157, 157, 157, 156, 157, 157, 156, 156, 155, 154, 153, 150, 148, 145, 144, 143, 145, 151, 161, 172, 186, 203, 222, 238, 246, 247, 236, 211, 180, 156, 147, 148, 152, 155, 156, 156, 155, 154, 154, 154, 155, 155, 154, 154, 154, 154, 155, 155, 155, 154, 155, 155, 155, 155, 155, 155, 154, 154, 155, 155, 153, 154, 153, 155, 155, 155, 154, 153, 153, 154, 155, 154, 155, 153, 154, 155, 156, 155, 154, 154, 155, 155, 155, 155, 155, 153, 154, 155, 155, 155, 154, 153, 154, 155, 155, 155, 154, 153, 154, 155, 155, 155, 154, 153, 154, 154, 154, 153, 153, 152, 152, 153, 152, 152, 153, 152, 152, 153, 154, 154, 153, 152, 153, 153, 155, 154, 155, 155, 156, 157, 158, 159, 159, 158, 160, 160, 161, 161, 161, 160, 161, 162, 162, 163, 163, 162, 162, 162, 163, 162, 162, 161, 161, 162, 162, 162, 161, 161, 162, 162, 162, 162, 162, 161, 162, 162, 162, 162, 161, 160, 161, 161, 162, 162, 161, 161, 160, 161, 161, 161, 160, 159, 159, 160, 160, 160, 160, 159, 158, 160, 159, 159, 159, 158, 158, 159, 159, 159, 159, 158, 158, 159, 160, 159, 159, 159, 160, 160, 160, 159, 159, 158, 157, 159, 160, 159, 159, 158, 158, 159, 160, 160, 160, 158, 158, 160, 161, 161, 161, 162, 163, 164, 165, 166, 165, 165, 166, 167, 167, 168, 167, 166, 167, 167, 167, 166, 165, 164, 165, 166, 166, 166, 165, 165, 167, 168, 170, 170, 168, 166, 165, 164, 164, 163, 162, 161, 160, 160, 160, 159, 159, 158, 158, 159, 159, 159, 159, 158, 157, 158, 158, 159, 158, 157, 157, 158, 158, 158, 157, 157, 156, 154, 151, 149, 148, 145, 144, 147, 155, 165, 176, 188, 203, 224, 240, 251, 255, 247, 225, 195, 168, 154, 150, 154, 157, 159, 159, 158, 157, 157, 157, 157, 158, 157, 156, 155, 156, 156, 156, 156, 156, 154, 155, 155, 156, 156, 155, 155, 155, 156, 156, 156, 156, 156, 156, 156, 156, 157, 156, 156, 156, 156, 156, 156, 155, 154, 155, 156, 156, 156, 156, 155, 155, 155, 156, 156, 156, 155, 155, 156, 156, 157, 156, 156, 156, 156, 156, 156, 155, 154, 154, 155, 157, 155, 155, 155, 155, 155, 156, 155, 155, 154, 154, 155, 155, 156, 155, 154, 154, 154, 155, 155, 154, 154, 154, 155, 156, 156, 155, 156, 156, 157, 158, 159, 158, 159, 159, 160, 161, 161, 161, 161, 161, 162, 162, 163, 162, 162, 161, 161, 161, 162, 161, 161, 161, 161, 162, 162, 160, 160, 160, 160, 162, 161, 161, 160, 160, 161, 162, 161, 161, 160, 160, 159, 161, 160, 160, 159, 159, 159, 159, 159, 158, 157, 158, 157, 158, 158, 159, 157, 157, 158, 159, 159, 158, 157, 157, 158, 158, 158, 158, 156, 156, 157, 157, 158, 157, 156, 156, 157, 157, 158, 158, 157, 157, 157, 158, 156, 157, 156, 156, 157, 157, 158, 156, 156, 157, 157, 158, 158, 158, 158, 159, 160, 162, 162, 162, 162, 162, 163, 164, 165, 164, 164, 163, 163, 163, 163, 162, 161, 161, 162, 163, 163, 161, 161, 162, 165, 166, 166, 165, 163, 162, 161, 161, 160, 158, 158, 157, 156, 156, 155, 156, 155, 155, 156, 156, 156, 156, 155, 155, 155, 156, 156, 155, 155, 155, 156, 157, 156, 156, 155, 154, 154, 153, 150, 147, 145, 144, 142, 142, 144, 150, 159, 171, 184, 201, 219, 233, 242, 246, 239, 221, 192, 165, 150, 145, 147, 149, 152, 154, 154, 154, 154, 154, 154, 154, 153, 154, 153, 153, 153, 152, 151, 152, 152, 152, 151, 152, 152, 152, 152, 153, 152, 152, 151, 151, 152, 152, 152, 152, 152, 151, 153, 153, 154, 153, 152, 151, 152, 152, 153, 152, 151, 152, 152, 152, 152, 152, 151, 151, 152, 153, 153, 152, 151, 152, 152, 153, 154, 152, 152, 153, 153, 153, 152, 151, 151, 151, 152, 153, 153, 152, 151, 151, 152, 152, 152, 151, 150, 149, 150, 151, 151, 150, 150, 150, 151, 151, 151, 151, 150, 150, 150, 151, 150, 151, 151, 151, 152, 153, 154, 154, 153, 154, 156, 157, 157, 157, 157, 157, 158, 159, 159, 158, 157, 158, 158, 159, 159, 158, 158, 157, 159, 159, 159, 158, 157, 158, 157, 157, 157, 157, 156, 155, 156, 158, 158, 156, 156, 156, 156, 156, 156, 156, 155, 155, 155, 155, 156, 155, 154, 154, 154, 155, 155, 154, 154, 154, 155, 156, 155, 154, 153, 154, 154, 154, 154, 153, 152, 152, 154, 154, 154, 154, 152, 153, 154, 154, 154, 153, 151, 151, 153, 154, 153, 153, 153, 153, 153, 154, 154, 154, 153, 153, 153, 154, 154, 154, 154, 155, 157, 157, 156, 156, 156, 157, 158, 160, 160, 159, 160, 160, 162, 162, 161, 160, 160, 160, 161, 162, 161, 160, 158, 157, 157, 158, 159, 160, 160, 160, 159, 158, 157, 155, 154, 154, 154, 154, 154, 153, 152, 151, 152, 153, 153, 153, 152, 151, 152, 152, 153, 151, 152, 152, 152, 153, 152, 152, 151, 151, 150, 151, 150, 150, 148, 145, 145, 144, 142, 138, 135, 135, 140, 145, 152, 159, 166, 177, 193, 210, 224, 235, 238, 231, 212, 187, 164, 150, 145, 145, 146, 148, 149, 149, 148, 149, 149, 149, 148, 148, 147, 149, 149, 150, 150, 150, 149, 149, 151, 151, 151, 150, 149, 149, 149, 149, 149, 149, 149, 148, 148, 149, 149, 149, 148, 148, 149, 150, 150, 149, 148, 148, 149, 149, 150, 150, 149, 149, 149, 149, 150, 149, 148, 148, 149, 149, 149, 148, 148, 148, 147, 148, 148, 148, 148, 148, 149, 150, 149, 149, 147, 147, 148, 149, 149, 148, 147, 146, 147, 148, 148, 147, 147, 146, 145, 146, 145, 145, 144, 144, 145, 145, 145, 144, 144, 145, 145, 145, 146, 146, 147, 148, 149, 150, 150, 150, 151, 150, 152, 154, 154, 155, 155, 155, 156, 156, 156, 157, 156, 156, 157, 157, 157, 157, 155, 156, 156, 157, 156, 156, 156, 156, 157, 157, 156, 156, 156, 155, 156, 156, 156, 156, 155, 155, 156, 156, 156, 155, 154, 153, 155, 155, 155, 154, 154, 154, 154, 154, 155, 154, 153, 152, 152, 153, 151, 151, 149, 147, 147, 145, 143, 143, 140, 135, 124, 108, 88, 67, 47, 32, 21, 12, 6, 1, 0, 2, 6, 12, 19, 29, 43, 59, 74, 88, 101, 115, 128, 138, 148, 155, 158, 160, 161, 163, 166, 169, 172, 172, 173, 174, 176, 177, 179, 179, 180, 181, 184, 185, 185, 185, 184, 184, 185, 187, 187, 188, 189, 190, 191, 192, 193, 195, 195, 194, 193, 193, 192, 192, 192, 191, 193, 193, 194, 194, 194, 195, 197, 198, 199, 200, 201, 202, 203, 205, 207, 207, 209, 211, 214, 215, 218, 219, 220, 222, 224, 226, 228, 230, 230, 232, 233, 236, 237, 237, 237, 237, 238, 238, 238, 238, 237, 237, 238, 237, 237, 235, 232, 229, 227, 225, 222, 218, 214, 211, 207, 203, 200, 195, 192, 188, 185, 182, 180, 177, 175, 173, 171, 171, 168, 167, 165, 164, 163, 162, 161, 161, 159, 159, 159, 160, 159, 158, 157, 159, 158, 159, 159, 158, 158, 158, 158, 159, 159, 158, 158, 158, 158, 159, 158, 158, 157, 158, 157, 157, 157, 157, 157, 157, 157, 158, 157, 156, 156, 155, 156, 157, 156, 156, 155, 155, 156, 156, 156, 155, 154, 155, 156, 156, 155, 154, 153, 153, 154, 155, 154, 153, 152, 153, 153, 154, 153, 153, 153, 152, 153, 154, 154, 154, 154, 153, 154, 155, 154, 153, 153, 153, 154, 154, 154, 153, 152, 152, 153, 153, 153, 152, 152, 151, 153, 153, 152, 153, 152, 152, 153, 154, 153, 153, 153, 152, 153, 153, 153, 153, 152, 151, 152, 153, 152, 152, 152, 152, 152, 153, 152, 152, 152, 152, 152, 153, 153, 153, 153, 152, 153, 154, 153, 153, 151, 152, 153, 153, 153, 152, 152, 152, 152, 154, 153, 152, 152, 152, 152, 153, 152, 152, 152, 151, 153, 153, 153, 152, 152, 152, 153, 153, 152, 152, 151, 152, 152, 153, 153, 152, 152, 152, 152, 153, 153, 153, 152, 152, 153, 154, 154, 153, 153, 153, 153, 153, 153, 153, 152, 152, 153, 153, 153, 153, 152, 152, 153, 154, 154, 154, 153, 154, 156, 156, 157, 156, 156, 156, 157, 158, 159, 159, 160, 159, 160, 160, 160, 160, 159, 159, 158, 158, 159, 158, 157, 157, 158, 160, 161, 159, 157, 156, 156, 156, 155, 154, 153, 152, 152, 153, 152, 152, 152, 152, 152, 153, 152, 152, 150, 150, 151, 152, 152, 150, 150, 150, 151, 151, 151, 150, 150, 150, 149, 147, 144, 142, 141, 139, 138, 140, 147, 156, 169, 182, 197, 216, 232, 244 }



no. 3600 point