{ 179, 177, 174, 172, 169, 168, 165, 163, 161, 158, 157, 155, 152, 151, 148, 147, 144, 143, 142, 140, 139, 138, 137, 137, 135, 134, 133, 132, 131, 130, 130, 130, 130, 130, 130, 130, 130, 129, 129, 129, 128, 128, 128, 128, 129, 129, 130, 130, 129, 130, 129, 129, 129, 128, 128, 127, 128, 128, 128, 129, 129, 129, 128, 128, 127, 127, 127, 126, 126, 127, 127, 127, 126, 126, 125, 125, 125, 125, 125, 124, 125, 125, 125, 126, 125, 125, 125, 125, 124, 124, 124, 125, 124, 125, 125, 125, 125, 124, 124, 123, 123, 123, 123, 124, 124, 125, 125, 125, 125, 125, 125, 125, 124, 124, 125, 125, 125, 125, 125, 125, 125, 125, 126, 126, 127, 127, 127, 128, 129, 130, 132, 133, 133, 135, 136, 135, 136, 137, 138, 139, 142, 144, 144, 145, 144, 142, 141, 141, 141, 141, 142, 141, 141, 139, 138, 136, 135, 133, 131, 129, 128, 126, 126, 125, 125, 124, 123, 124, 123, 123, 124, 124, 123, 123, 123, 124, 125, 124, 125, 125, 127, 130, 137, 147, 158, 171, 184, 196, 208, 218, 228, 236, 241, 242, 238, 231, 219, 201, 181, 162, 147, 137, 131, 128, 126, 126, 124, 121, 119, 116, 113, 113, 113, 113, 113, 113, 113, 113, 113, 112, 112, 111, 111, 112, 111, 111, 111, 111, 111, 111, 111, 110, 109, 109, 109, 109, 109, 110, 110, 110, 109, 109, 109, 108, 106, 106, 105, 105, 105, 105, 105, 105, 104, 103, 101, 100, 99, 97, 97, 97, 96, 96, 96, 95, 94, 93, 92, 90, 89, 89, 88, 88, 88, 89, 89, 90, 90, 91, 91, 92, 92, 92, 93, 94, 97, 98, 100, 102, 104, 106, 108, 109, 111, 111, 112, 114, 116, 118, 119, 121, 122, 124, 124, 125, 125, 125, 127, 128, 129, 131, 133, 136, 138, 142, 145, 149, 154, 157, 162, 167, 170, 173, 174, 170, 161, 148, 130, 110, 89, 71, 56, 43, 32, 24, 17, 12, 8, 4, 2, 0, 0, 2, 4, 7, 11, 15, 22, 28, 35, 42, 49, 56, 63, 71, 77, 84, 90, 96, 102, 107, 113, 118, 125, 133, 142, 150, 156, 161, 164, 163, 163, 162, 161, 160, 158, 158, 159, 159, 160, 161, 161, 162, 162, 163, 164, 164, 165, 165, 165, 166, 166, 168, 168, 170, 171, 171, 173, 174, 174, 174, 175, 176, 178, 178, 179, 180, 182, 183, 184, 185, 185, 186, 186, 187, 187, 188, 189, 189, 189, 190, 189, 188, 187, 185, 183, 181, 180, 178, 177, 175, 173, 172, 170, 167, 165, 163, 160, 157, 155, 153, 151, 150, 148, 147, 146, 144, 142, 141, 138, 137, 137, 135, 135, 135, 135, 135, 135, 134, 134, 133, 132, 132, 132, 132, 132, 133, 133, 133, 133, 133, 133, 132, 132, 131, 131, 131, 131, 131, 130, 131, 131, 130, 131, 130, 130, 130, 129, 129, 129, 129, 128, 129, 128, 129, 128, 128, 128, 128, 128, 128, 127, 127, 128, 128, 128, 128, 127, 127, 126, 126, 127, 127, 127, 128, 127, 127, 127, 127, 127, 127, 127, 127, 127, 126, 127, 127, 128, 127, 128, 127, 126, 126, 125, 125, 126, 127, 127, 128, 127, 127, 127, 127, 128, 128, 127, 128, 127, 127, 128, 128, 130, 130, 131, 132, 133, 132, 134, 135, 136, 136, 136, 138, 139, 142, 144, 146, 147, 147, 146, 144, 143, 142, 142, 143, 144, 144, 145, 144, 141, 140, 137, 135, 133, 132, 132, 131, 130, 130, 128, 127, 125, 125, 123, 123, 123, 124, 125, 125, 126, 126, 126, 126, 125, 125, 125, 125, 127, 131, 138, 147, 159, 172, 184, 195, 205, 215, 225, 234, 240, 243, 244, 241, 234, 223, 206, 187, 169, 153, 142, 135, 130, 128, 127, 126, 124, 122, 120, 118, 116, 115, 115, 114, 114, 113, 114, 114, 113, 113, 113, 113, 113, 113, 113, 112, 112, 112, 112, 112, 111, 112, 112, 112, 112, 112, 111, 111, 111, 111, 110, 110, 110, 109, 109, 108, 107, 107, 105, 105, 104, 103, 103, 102, 101, 100, 99, 98, 97, 96, 95, 94, 93, 92, 91, 90, 90, 90, 90, 90, 89, 90, 90, 90, 90, 89, 91, 93, 94, 96, 97, 98, 99, 102, 104, 105, 107, 108, 111, 113, 114, 116, 117, 119, 120, 121, 122, 123, 124, 125, 125, 126, 126, 127, 127, 128, 127, 127, 126, 127, 128, 128, 129, 130, 131, 132, 134, 135, 137, 138, 141, 144, 147, 151, 156, 160, 164, 170, 175, 179, 180, 176, 164, 146, 123, 99, 74, 54, 37, 27, 19, 15, 13, 10, 8, 7, 7, 10, 15, 20, 28, 35, 43, 51, 56, 62, 66, 71, 77, 83, 90, 98, 104, 110, 113, 118, 122, 127, 134, 141, 147, 152, 154, 155, 155, 154, 154, 154, 155, 156, 157, 158, 159, 161, 162, 163, 164, 165, 166, 167, 167, 168, 169, 170, 172, 173, 174, 175, 177, 178, 178, 180, 180, 182, 182, 184, 185, 187, 189, 191, 192, 193, 193, 194, 194, 194, 194, 194, 194, 193, 193, 192, 191, 189, 187, 185, 182, 180, 178, 176, 173, 171, 169, 166, 165, 163, 161, 158, 156, 153, 151, 149, 147, 145, 145, 144, 143, 143, 141, 139, 138, 137, 135, 135, 134, 134, 135, 134, 134, 135, 135, 135, 134, 134, 133, 133, 133, 133, 134, 134, 135, 135, 135, 135, 134, 134, 133, 133, 132, 132, 132, 133, 133, 133, 133, 134, 133, 132, 132, 132, 131, 132, 131, 131, 132, 132, 132, 132, 132, 131, 131, 130, 130, 130, 130, 131, 132, 132, 131, 132, 131, 132, 130, 130, 130, 130, 130, 130, 132, 132, 131, 132, 132, 130, 130, 130, 130, 130, 130, 130, 130, 130, 131, 131, 130, 131, 130, 130, 130, 131, 131, 132, 132, 133, 134, 135, 137, 137, 138, 138, 139, 140, 141, 142, 144, 145, 148, 149, 151, 151, 151, 149, 147, 147, 147, 147, 147, 148, 147, 146, 144, 142, 139, 138, 136, 135, 134, 133, 132, 131, 130, 129, 128, 127, 127, 127, 128, 128, 129, 129, 129, 130, 130, 129, 129, 129, 131, 134, 139, 150, 162, 175, 189, 202, 213, 224, 234, 241, 246, 248, 245, 239, 227, 211, 192, 172, 155, 143, 136, 133, 130, 130, 128, 126, 123, 121, 120, 119, 118, 118, 118, 118, 118, 117, 117, 116, 117, 118, 117, 117, 117, 117, 116, 116, 116, 116, 115, 115, 116, 115, 116, 116, 116, 115, 115, 114, 113, 112, 112, 111, 111, 111, 111, 111, 110, 108, 108, 106, 105, 104, 103, 102, 102, 101, 101, 100, 98, 97, 96, 94, 92, 92, 92, 91, 91, 91, 91, 91, 92, 91, 91, 92, 92, 93, 94, 95, 97, 99, 101, 104, 106, 108, 110, 111, 113, 114, 116, 117, 119, 121, 123, 124, 125, 127, 126, 126, 127, 127, 128, 128, 128, 129, 129, 129, 129, 130, 130, 130, 129, 129, 129, 129, 129, 129, 130, 130, 130, 130, 130, 130, 130, 131, 131, 132, 133, 134, 136, 136, 137, 137, 137, 137, 137, 138, 140, 143, 146, 151, 155, 161, 168, 174, 181, 187, 192, 197, 204, 211, 218, 225, 232, 239, 244, 247, 248, 245, 239, 226, 208, 183, 154, 123, 98, 78, 65, 58, 58, 62, 68, 73, 78, 83, 87, 91, 97, 102, 107, 111, 116, 119, 120, 120, 121, 120, 120, 121, 122, 122, 122, 123, 122, 121, 121, 121, 121, 121, 122, 122, 122, 122, 121, 121, 121, 121, 120, 120, 121, 121, 122, 122, 122, 122, 122, 121, 121, 121, 121, 120, 120, 121, 122, 122, 123, 124, 124, 125, 126, 126, 127, 127, 128, 129, 130, 132, 133, 135, 135, 136, 137, 138, 138, 138, 137, 137, 138, 139, 139, 140, 140, 140, 138, 137, 136, 136, 135, 135, 135, 134, 134, 134, 134, 133, 132, 131, 130, 129, 129, 129, 129, 130, 130, 132, 131, 131, 130, 130, 128, 128, 128, 128, 129, 130, 130, 131, 131, 131, 130, 130, 130, 129, 129, 129, 129, 130, 130, 131, 131, 130, 129, 131, 131, 131, 130, 130, 130, 130, 131, 132, 132, 133, 132, 132, 131, 130, 131, 131, 132, 132, 132, 132, 132, 131, 130, 130, 130, 130, 130, 129, 130, 131, 132, 132, 132, 131, 131, 131, 131, 131, 131, 131, 131, 132, 133, 133, 133, 134, 134, 135, 136, 137, 138, 139, 139, 140, 142, 144, 146, 147, 149, 151, 150, 149, 149, 147, 147, 147, 148, 148, 148, 147, 146, 144, 142, 139, 137, 135, 134, 133, 133, 133, 132, 131, 129, 128, 128, 127, 127, 126, 126, 127, 128, 128, 129, 129, 130, 129, 128, 128, 128, 130, 134, 140, 149, 161, 173, 186, 196, 206, 216, 226, 236, 244, 249, 251, 248, 241, 229, 211, 189, 168, 151, 141, 135, 133, 133, 133, 132, 131, 128, 124, 121, 119, 118, 117, 118, 117, 118, 118, 118, 117, 117, 117, 116, 116, 115, 114, 115, 116, 115, 116, 116, 115, 115, 115, 115, 115, 113, 113, 113, 113, 112, 112, 113, 113, 113, 112, 111, 110, 110, 109, 109, 108, 108, 107, 107, 107, 106, 105, 104, 102, 101, 101, 100, 99, 98, 97, 97, 97, 96, 95, 94, 93, 93, 92, 93, 93, 94, 94, 94, 95, 95, 96, 97, 98, 99, 100, 101, 103, 105, 107, 109, 112, 113, 115, 116, 117, 118, 118, 119, 121, 123, 124, 126, 126, 126, 127, 127, 126, 125, 125, 125, 126, 126, 126, 126, 127, 127, 127, 126, 126, 126, 125, 126, 125, 125, 125, 126, 127, 126, 126, 125, 124, 125, 124, 124, 125, 125, 126, 126, 127, 127, 128, 128, 128, 128, 128, 129, 130, 131, 132, 135, 136, 136, 137, 137, 139, 140, 142, 143, 143, 143, 142, 142, 142, 141, 142, 142, 141, 140, 138, 137, 135, 133, 131, 130, 129, 128, 128, 126, 125, 123, 122, 123, 123, 123, 123, 124, 125, 124, 125, 125, 125, 125, 124, 124, 124, 125, 128, 133, 142, 151, 164, 177, 188, 198, 207, 217, 228, 235, 240, 243, 242, 236, 226, 211, 189, 170, 152, 139, 131, 128, 126, 126, 125, 124, 122, 118, 116, 114, 115, 114, 114, 114, 114, 114, 114, 114, 114, 113, 113, 113, 113, 113, 112, 113, 113, 113, 113, 112, 113, 112, 112, 111, 112, 112, 111, 111, 111, 111, 111, 111, 111, 110, 110, 108, 108, 107, 106, 106, 106, 106, 106, 105, 104, 104, 101, 100, 100, 100, 99, 100, 99, 99, 99, 98, 98, 98, 97, 97, 97, 98, 98, 100, 101, 102, 104, 105, 106, 107, 108, 110, 111, 112, 114, 116, 117, 119, 120, 121, 122, 122, 122, 122, 123, 123, 123, 123, 124, 125, 125, 125, 125, 125, 125, 125, 125, 125, 127, 128, 128, 130, 132, 134, 136, 139, 144, 147, 151, 156, 161, 168, 174, 182, 189, 193, 192, 185, 170, 148, 120, 91, 66, 47, 33, 23, 18, 12, 8, 6, 5, 4, 5, 8, 11, 15, 21, 28, 36, 44, 51, 56, 58, 62, 65, 68, 74, 81, 88, 94, 100, 103, 105, 106, 107, 111, 116, 122, 130, 137, 142, 147, 149, 150, 150, 149, 149, 149, 150, 151, 152, 154, 156, 156, 158, 158, 158, 160, 160, 161, 161, 163, 165, 166, 168, 169, 170, 172, 172, 173, 174, 174, 176, 178, 179, 181, 183, 184, 185, 187, 187, 188, 188, 189, 189, 190, 190, 191, 191, 190, 190, 189, 187, 185, 183, 182, 180, 178, 176, 174, 172, 170, 168, 166, 163, 161, 158, 156, 154, 152, 150, 149, 147, 146, 145, 143, 142, 140, 138, 137, 136, 136, 135, 135, 135, 135, 135, 135, 134, 133, 133, 132, 132, 132, 132, 132, 133, 134, 134, 134, 134, 134, 133, 133, 132, 132, 132, 132, 132, 132, 133, 134, 134, 134, 133, 132, 132, 131, 132, 131, 132, 132, 133, 133, 133, 132, 132, 131, 130, 130, 131, 132, 132, 132, 132, 133, 133, 132, 132, 132, 131, 131, 131, 131, 132, 132, 132, 133, 133, 132, 132, 132, 131, 131, 131, 131, 132, 132, 133, 133, 132, 133, 133, 132, 132, 132, 132, 132, 132, 133, 133, 133, 135, 135, 135, 135, 136, 137, 138, 139, 140, 141, 143, 143, 144, 145, 147, 148, 150, 151, 152, 152, 151, 151, 150, 149, 149, 149, 149, 149, 149, 148, 146, 145, 143, 141, 140, 139, 138, 137, 136, 133, 132, 131, 130, 130, 130, 131, 132, 132, 133, 133, 132, 132, 132, 132, 132, 132, 133, 136, 142, 150, 161, 174, 187, 198, 209, 220, 230, 240, 248, 252, 252, 249, 241, 228, 210, 190, 171, 157, 145, 139, 137, 135, 134, 132, 130, 126, 124, 122, 122, 121, 122, 122, 123, 122, 122, 121, 121, 120, 120, 119, 119, 119, 119, 119, 119, 120, 120, 119, 119, 119, 118, 117, 117, 116, 116, 117, 118, 118, 118, 117, 116, 116, 115, 115, 114, 113, 113, 113, 113, 112, 112, 111, 110, 109, 107, 106, 103, 103, 102, 102, 101, 101, 101, 100, 99, 97, 96, 96, 96, 95, 96, 97, 98, 99, 100, 101, 102, 103, 104, 104, 106, 108, 111, 113, 116, 118, 120, 121, 123, 125, 126, 127, 128, 128, 130, 131, 132, 133, 134, 134, 135, 135, 135, 135, 135, 137, 137, 140, 142, 144, 148, 152, 156, 161, 165, 168, 173, 178, 182, 185, 183, 177, 162, 142, 118, 92, 69, 49, 34, 24, 16, 13, 11, 10, 9, 8, 9, 10, 12, 15, 20, 25, 31, 38, 46, 55, 64, 72, 79, 86, 91, 97, 101, 106, 112, 118, 126, 135, 143, 152, 160, 165, 168, 169, 168, 167, 167, 166, 166, 167, 166, 167, 167, 168, 168, 168, 169, 170, 171, 171, 172, 173, 175, 175, 175, 176, 178, 178, 179, 179, 180, 182, 182, 184, 185, 187, 187, 188, 188, 189, 190, 192, 194, 195, 196, 198, 199, 199, 200, 200, 200, 200, 199, 199, 199, 198, 197, 196, 195, 192, 191, 189, 187, 185, 182, 180, 178, 176, 174, 172, 170, 168, 166, 164, 161, 160, 158, 156, 154, 153, 152, 151, 150, 149, 148, 148, 147, 145, 144, 145, 144, 145, 145, 145, 145, 145, 145, 145, 144, 143, 143, 143, 144, 144, 144, 144, 144, 144, 144, 143, 143, 143, 142, 142, 142, 142, 142, 142, 142, 142, 142, 142, 142, 141, 141, 140, 140, 141, 140, 142, 141, 141, 140, 139, 140, 140, 139, 140, 139, 139, 140, 140, 141, 140, 140, 140, 139, 139, 139, 139, 138, 139, 140, 140, 140, 141, 139, 139, 138, 139, 138, 138, 138, 139, 140, 141, 141, 141, 141, 139, 139, 139, 139, 138, 138, 140, 140, 141, 141, 140, 140, 141, 141, 141, 141, 142, 142, 144, 146, 148, 149, 151, 151, 151, 152, 153, 156, 156, 158, 159, 160, 159, 158, 157, 156, 156, 157, 156, 156, 155, 154, 153, 151, 149, 148, 146, 145, 144, 142, 141, 139, 139, 138, 137, 137, 138, 138, 139, 139, 138, 138, 139, 138, 139, 138, 138, 138, 140, 143, 148, 157, 167, 179, 191, 202, 213, 225, 235, 244, 251, 255, 254, 252, 243, 232, 215, 196, 178, 163, 152, 146, 143, 141, 140, 138, 136, 133, 130, 128, 126, 127, 126, 127, 126, 127, 127, 126, 126, 126, 125, 125, 124, 123, 124, 124, 124, 125, 125, 124, 123, 124, 123, 123, 123, 123, 123, 123, 123, 123, 123, 122, 121, 120, 120, 119, 119, 118, 118, 117, 117, 116, 115, 115, 113, 112, 111, 109, 107, 107, 106, 106, 105, 105, 104, 103, 102, 101, 100, 99, 99, 99, 99, 100, 100, 101, 102, 103, 103, 103, 104, 105, 107, 108, 111, 113, 114, 116, 119, 120, 122, 123, 125, 126, 127, 129, 130, 132, 133, 135, 135, 136, 136, 136, 135, 135, 136, 136, 137, 137, 138, 139, 139, 140, 142, 142, 142, 144, 146, 148, 151, 155, 158, 163, 168, 172, 177, 181, 185, 188, 186, 179, 164, 144, 120, 94, 71, 50, 35, 25, 19, 15, 13, 11, 10, 10, 12, 14, 18, 22, 27, 33, 39, 47, 57, 66, 73, 80, 84, 89, 92, 98, 105, 112, 119, 125, 133, 139, 146, 153, 159, 164, 166, 168, 168, 168, 166, 165, 166, 165, 166, 167, 168, 170, 170, 171, 172, 173, 173, 173, 174, 174, 176, 177, 177, 178, 179, 180, 180, 181, 182, 183, 184, 186, 187, 188, 189, 192, 192, 193, 194, 195, 196, 198, 199, 200, 201, 201, 201, 202, 203, 202, 202, 201, 200, 199, 198, 196, 196, 194, 192, 190, 188, 186, 185, 182, 180, 178, 176, 173, 171, 170, 168, 167, 164, 162, 160, 159, 156, 154, 152, 151, 149, 150, 149, 149, 148, 148, 147, 145, 144, 144, 144, 143, 143, 144, 144, 145, 144, 145, 144, 144, 144, 143, 142, 142, 142, 143, 143, 143, 143, 144, 144, 143, 143, 142, 141, 141, 141, 141, 141, 141, 142, 141, 141, 140, 140, 140, 140, 140, 141, 141, 140, 140, 140, 140, 138, 139, 139, 138, 138, 139, 139, 139, 139, 140, 139, 139, 139, 139, 138, 139, 139, 139, 139, 139, 139, 140, 140, 139, 139, 139, 139, 138, 138, 138, 138, 138, 139, 139, 139, 139, 139, 139, 139, 138, 139, 139, 139, 139, 139, 140, 139, 140, 139, 139, 140, 140, 142, 143, 144, 146, 147, 148, 148, 149, 149, 150, 152, 154, 156, 158, 159, 158, 158, 156, 155, 155, 155, 155, 155, 154, 153, 151, 149, 148, 146, 145, 143, 142, 141, 139, 138, 137, 136, 135, 136, 137, 137, 138, 138, 138, 139, 138, 137, 136, 136, 136, 137, 139, 144, 153, 163, 175, 188, 200, 211, 223, 233, 243, 250, 254, 254, 249, 240, 225, 206, 186, 169, 155, 147, 142, 141, 140, 139, 137, 135, 132, 129, 128, 127, 126, 126, 125, 126, 126, 126, 127, 125, 126, 125, 125, 125, 124, 123, 123, 123, 124, 124, 124, 124, 123, 124, 123, 123, 123, 123, 123, 122, 122, 121, 121, 120, 121, 120, 120, 118, 118, 117, 116, 116, 115, 114, 114, 112, 112, 111, 110, 108, 106, 106, 105, 104, 102, 102, 102, 101, 100, 99, 99, 98, 98, 97, 98, 98, 99, 99, 101, 101, 103, 104, 106, 107, 109, 111, 114, 115, 118, 120, 122, 123, 125, 127, 128, 130, 131, 132, 133, 135, 136, 136, 137, 137, 137, 136, 136, 136, 136, 137, 137, 137, 137, 138, 138, 138, 138, 137, 137, 137, 137, 137, 138, 139, 139, 140, 140, 141, 142, 142, 143, 143, 144, 144, 145, 146, 147, 148, 149, 150, 154, 156, 161, 165, 172, 180, 187, 194, 201, 207, 214, 219, 225, 232, 238, 244, 250, 254, 255, 253, 246, 232, 212, 186, 156, 127, 102, 85, 75, 71, 72, 76, 81, 86, 89, 93, 97, 101, 106, 111, 116, 120, 123, 126, 127, 128, 128, 128, 128, 128, 128, 128, 128, 127, 127, 127, 128, 128, 129, 129, 129, 128, 128, 128, 127, 127, 127, 127, 127, 127, 128, 127, 128, 128, 128, 128, 127, 127, 126, 127, 127, 127, 128, 129, 129, 128, 129, 129, 130, 130, 131, 131, 132, 133, 135, 136, 138, 139, 140, 141, 140, 142, 142, 142, 144, 144, 145, 145, 146, 145, 145, 144, 144, 142, 142, 142, 141, 141, 142, 142, 141, 141, 141, 141, 141, 141, 142, 145, 147, 150, 154, 158, 162, 168, 173, 177, 182, 185, 186, 184, 178, 168, 154, 137, 116, 96, 77, 60, 44, 31, 20, 13, 8, 7, 8, 11, 14, 19, 25, 32, 39, 46, 51, 55, 60, 65, 70, 75, 81, 85, 88, 90, 92, 95, 100, 106, 114, 123, 131, 139, 144, 149, 153, 155, 157, 158, 160, 160, 163, 165, 166, 167, 167, 168, 169, 169, 170, 170, 171, 173, 175, 176, 177, 178, 179, 179, 180, 180, 182, 183, 184, 185, 187, 189, 191, 193, 194, 196, 197, 197, 198, 199, 199, 199, 200, 201, 200, 200, 200, 198, 196, 194, 192, 190, 188, 187, 185, 184, 181, 179, 176, 175, 173, 171, 169, 167, 166, 163, 162, 160, 158, 156, 155, 154, 152, 151, 150, 148, 147, 147, 146, 146, 146, 146, 145, 145, 145, 144, 144, 144, 143, 144, 144, 143, 143, 144, 144, 143, 143, 143, 143, 143, 143, 142, 142, 142, 143, 143, 142, 142, 141, 140, 140, 140, 140, 140, 140, 140, 141, 141, 139, 139, 138, 137, 136, 135, 136, 136, 137, 137, 138, 137, 137, 137, 136, 135, 135, 135, 135, 135, 135, 135, 136, 135, 135, 134, 135, 134, 134, 133, 133, 134, 134, 135, 135, 135, 135, 135, 134, 134, 133, 132, 132, 133, 133, 134, 134, 134, 134, 133, 132, 132, 132, 132, 132, 133, 133, 133, 134, 134, 133, 132, 131, 131, 131, 131, 131, 132, 132, 133, 132, 133, 133, 132, 133, 132, 132, 132, 131, 132, 132, 132, 133, 132, 133, 132, 132, 132, 131, 131, 130, 131, 132, 132, 132, 132, 132, 132, 132, 132, 131, 132, 132, 132, 132, 132, 134, 134, 135, 136, 136, 137, 137, 138, 139, 139, 140, 141, 143, 145, 147, 149, 151, 150, 150, 148, 148, 147, 147, 149, 149, 149, 148, 147, 145, 143, 140, 138, 137, 135, 135, 134, 134, 132, 131, 130, 129, 128, 128, 128, 129, 129, 130, 130, 131, 130, 131, 130, 131, 133, 138, 147, 158, 173, 185, 199, 210, 221, 231, 240, 246, 249, 249, 247, 238, 226, 207, 186, 167, 151, 142, 137, 135, 133, 132, 129, 127, 123, 120, 118, 117, 116, 117, 116, 116, 116, 115, 115, 115, 115, 114, 115, 115 }



no. 3600 point